Raman Shift (1/cm),Intensity (Counts)
301.431,1543
301.759,1589
302.088,1569
302.416,1557
302.743,1562
303.072,1580
303.4,1558
303.729,1561
304.056,1562
304.384,1548
304.712,1558
305.039,1585
305.368,1547
305.696,1573
306.024,1559
306.351,1578
306.679,1578
307.008,1551
307.335,1547
307.663,1539
307.991,1553
308.318,1543
308.646,1562
308.974,1547
309.301,1569
309.629,1552
309.956,1578
310.284,1541
310.612,1578
310.939,1556
311.267,1563
311.593,1555
311.922,1580
312.25,1588
312.576,1563
312.904,1563
313.231,1578
313.559,1574
313.885,1541
314.213,1549
314.541,1557
314.868,1552
315.196,1543
315.522,1561
315.85,1549
316.176,1567
316.504,1575
316.831,1550
317.159,1581
317.485,1570
317.813,1579
318.139,1518
318.465,1554
318.793,1557
319.12,1545
319.447,1571
319.774,1571
320.101,1561
320.428,1541
320.755,1553
321.082,1548
321.408,1566
321.735,1590
322.062,1551
322.389,1532
322.715,1559
323.042,1546
323.369,1530
323.695,1560
324.021,1573
324.349,1576
324.675,1539
325.001,1566
325.329,1573
325.655,1581
325.981,1557
326.308,1567
326.634,1559
326.96,1561
327.287,1546
327.613,1566
327.939,1553
328.267,1559
328.593,1607
328.918,1541
329.244,1544
329.572,1565
329.898,1588
330.223,1584
330.549,1546
330.876,1589
331.202,1581
331.528,1550
331.854,1560
332.18,1559
332.507,1551
332.833,1586
333.158,1593
333.484,1555
333.81,1556
334.137,1573
334.462,1575
334.788,1548
335.114,1580
335.439,1572
335.765,1567
336.091,1561
336.418,1563
336.743,1580
337.069,1549
337.394,1578
337.72,1585
338.045,1573
338.371,1576
338.696,1554
339.022,1580
339.347,1561
339.673,1554
340,1567
340.325,1564
340.65,1564
340.976,1562
341.301,1590
341.626,1585
341.952,1560
342.277,1554
342.602,1589
342.928,1585
343.253,1587
343.578,1578
343.904,1575
344.229,1566
344.554,1575
344.879,1568
345.204,1589
345.53,1546
345.855,1558
346.179,1553
346.504,1598
346.829,1536
347.154,1575
347.479,1566
347.804,1544
348.129,1560
348.454,1572
348.779,1560
349.104,1571
349.43,1564
349.753,1566
350.078,1561
350.403,1565
350.728,1562
351.053,1563
351.378,1612
351.703,1602
352.026,1581
352.351,1549
352.676,1600
353.001,1581
353.326,1544
353.649,1561
353.974,1584
354.299,1554
354.624,1553
354.949,1574
355.272,1578
355.597,1589
355.921,1552
356.246,1551
356.569,1554
356.894,1607
357.219,1583
357.542,1577
357.867,1603
358.191,1589
358.516,1566
358.839,1584
359.164,1576
359.489,1557
359.812,1595
360.136,1566
360.461,1601
360.784,1547
361.108,1586
361.433,1593
361.756,1587
362.081,1591
362.405,1588
362.728,1583
363.052,1575
363.375,1562
363.7,1580
364.024,1576
364.347,1589
364.672,1545
364.995,1602
365.319,1583
365.643,1569
365.966,1572
366.291,1579
366.613,1569
366.938,1573
367.26,1546
367.585,1539
367.908,1567
368.232,1583
368.555,1565
368.879,1566
369.202,1566
369.526,1570
369.848,1571
370.173,1564
370.495,1562
370.819,1534
371.142,1573
371.466,1581
371.789,1571
372.113,1551
372.436,1568
372.76,1583
373.082,1597
373.405,1562
373.729,1571
374.051,1536
374.375,1561
374.698,1545
375.02,1596
375.344,1558
375.667,1578
375.991,1578
376.313,1582
376.635,1590
376.959,1588
377.282,1580
377.604,1583
377.928,1553
378.25,1608
378.573,1599
378.897,1562
379.219,1560
379.541,1597
379.863,1585
380.187,1566
380.509,1554
380.832,1574
381.155,1602
381.478,1590
381.8,1569
382.122,1567
382.446,1562
382.768,1566
383.09,1564
383.412,1597
383.736,1592
384.058,1582
384.38,1587
384.702,1566
385.024,1587
385.348,1547
385.67,1586
385.992,1559
386.314,1568
386.636,1581
386.958,1565
387.281,1604
387.603,1581
387.925,1578
388.247,1586
388.569,1592
388.891,1576
389.213,1591
389.535,1560
389.858,1569
390.18,1563
390.502,1549
390.824,1586
391.146,1583
391.467,1556
391.789,1590
392.111,1584
392.433,1585
392.755,1580
393.076,1580
393.398,1591
393.72,1573
394.042,1593
394.363,1571
394.685,1588
395.007,1585
395.328,1580
395.65,1607
395.971,1576
396.293,1584
396.615,1611
396.936,1586
397.258,1585
397.579,1565
397.901,1617
398.223,1568
398.544,1594
398.866,1578
399.187,1594
399.509,1566
399.83,1612
400.15,1580
400.471,1578
400.793,1574
401.114,1572
401.436,1588
401.757,1599
402.078,1565
402.4,1597
402.72,1575
403.041,1606
403.362,1554
403.684,1597
404.005,1573
404.326,1588
404.646,1580
404.967,1607
405.289,1578
405.61,1574
405.931,1596
406.251,1585
406.572,1573
406.893,1589
407.214,1571
407.534,1614
407.855,1551
408.176,1567
408.497,1595
408.817,1625
409.138,1599
409.459,1571
409.779,1577
410.1,1600
410.421,1579
410.742,1595
411.061,1563
411.382,1577
411.703,1553
412.023,1598
412.344,1572
412.665,1545
412.984,1578
413.305,1569
413.626,1558
413.945,1563
414.266,1566
414.586,1580
414.906,1583
415.227,1571
415.547,1558
415.867,1573
416.187,1583
416.508,1581
416.828,1581
417.148,1570
417.468,1568
417.788,1567
418.108,1598
418.428,1566
418.748,1583
419.067,1590
419.388,1601
419.707,1602
420.028,1588
420.347,1553
420.668,1577
420.987,1553
421.307,1586
421.627,1570
421.947,1605
422.266,1595
422.587,1566
422.906,1560
423.226,1557
423.545,1554
423.864,1556
424.185,1591
424.504,1557
424.824,1564
425.143,1573
425.464,1593
425.782,1594
426.101,1576
426.422,1580
426.741,1591
427.06,1550
427.38,1553
427.699,1580
428.019,1593
428.338,1586
428.657,1581
428.977,1553
429.296,1592
429.614,1569
429.933,1571
430.253,1590
430.572,1541
430.891,1551
431.211,1579
431.53,1589
431.848,1531
432.167,1563
432.487,1579
432.806,1573
433.125,1564
433.443,1578
433.763,1573
434.082,1564
434.4,1572
434.719,1591
435.039,1583
435.357,1574
435.676,1587
435.995,1553
436.313,1570
436.633,1555
436.951,1542
437.27,1577
437.588,1579
437.907,1607
438.225,1577
438.544,1595
438.863,1575
439.182,1563
439.5,1599
439.819,1584
440.137,1587
440.455,1590
440.774,1557
441.092,1568
441.41,1581
441.73,1596
442.048,1564
442.366,1577
442.685,1567
443.003,1595
443.321,1609
443.639,1557
443.958,1569
444.276,1565
444.594,1567
444.912,1562
445.23,1571
445.548,1576
445.866,1560
446.184,1578
446.503,1543
446.821,1559
447.139,1584
447.457,1592
447.775,1552
448.093,1587
448.411,1579
448.729,1565
449.045,1581
449.363,1545
449.681,1599
449.999,1592
450.317,1592
450.635,1572
450.953,1573
451.271,1568
451.589,1564
451.906,1578
452.223,1577
452.541,1566
452.859,1565
453.176,1569
453.494,1578
453.812,1586
454.128,1582
454.446,1578
454.764,1557
455.081,1572
455.399,1575
455.715,1592
456.033,1579
456.351,1598
456.668,1587
456.986,1564
457.302,1572
457.62,1598
457.938,1601
458.255,1579
458.571,1601
458.889,1558
459.206,1573
459.524,1553
459.84,1593
460.158,1572
460.475,1571
460.791,1591
461.109,1589
461.426,1579
461.742,1584
462.06,1570
462.377,1592
462.693,1583
463.01,1612
463.328,1602
463.644,1539
463.961,1583
464.277,1565
464.594,1574
464.912,1609
465.227,1589
465.545,1576
465.861,1578
466.178,1598
466.495,1565
466.811,1591
467.128,1564
467.444,1596
467.761,1601
468.077,1565
468.394,1550
468.71,1587
469.027,1578
469.344,1561
469.66,1591
469.977,1573
470.293,1580
470.61,1579
470.925,1604
471.241,1599
471.558,1584
471.873,1579
472.19,1579
472.506,1602
472.823,1575
473.139,1565
473.456,1574
473.771,1542
474.088,1571
474.404,1578
474.719,1591
475.036,1565
475.351,1589
475.668,1577
475.984,1564
476.299,1557
476.616,1585
476.931,1568
477.247,1574
477.563,1554
477.879,1599
478.194,1571
478.511,1597
478.826,1577
479.142,1590
479.458,1570
479.774,1577
480.089,1595
480.405,1590
480.721,1561
481.036,1549
481.351,1611
481.668,1575
481.983,1560
482.298,1563
482.613,1599
482.93,1591
483.245,1575
483.56,1556
483.875,1585
484.192,1570
484.507,1579
484.822,1586
485.137,1582
485.452,1588
485.767,1600
486.083,1584
486.398,1550
486.713,1572
487.028,1574
487.343,1561
487.658,1563
487.975,1597
488.29,1589
488.604,1577
488.919,1581
489.234,1589
489.549,1540
489.864,1548
490.179,1580
490.494,1573
490.81,1551
491.125,1595
491.44,1561
491.754,1574
492.069,1608
492.384,1564
492.699,1556
493.013,1561
493.328,1566
493.643,1564
493.957,1566
494.272,1577
494.587,1562
494.901,1579
495.216,1568
495.531,1564
495.845,1573
496.16,1583
496.474,1563
496.789,1596
497.104,1561
497.418,1559
497.733,1567
498.046,1544
498.36,1555
498.675,1604
498.989,1587
499.304,1566
499.618,1564
499.933,1546
500.247,1558
500.561,1565
500.876,1575
501.189,1571
501.503,1573
501.818,1575
502.132,1574
502.446,1596
502.761,1573
503.073,1548
503.388,1591
503.702,1556
504.016,1595
504.331,1551
504.643,1567
504.958,1591
505.272,1598
505.586,1593
505.9,1575
506.213,1569
506.527,1574
506.841,1565
507.155,1584
507.468,1577
507.782,1555
508.096,1576
508.409,1543
508.723,1553
509.037,1536
509.351,1563
509.664,1564
509.978,1587
510.292,1587
510.605,1601
510.919,1563
511.233,1564
511.545,1552
511.859,1560
512.172,1588
512.485,1580
512.799,1558
513.112,1569
513.426,1582
513.74,1576
514.052,1586
514.366,1565
514.678,1589
514.992,1573
515.305,1594
515.618,1587
515.932,1579
516.244,1556
516.558,1559
516.87,1602
517.184,1584
517.497,1567
517.81,1564
518.122,1563
518.436,1561
518.748,1578
519.062,1569
519.374,1582
519.688,1592
520,1555
520.314,1570
520.626,1573
520.94,1580
521.252,1553
521.564,1549
521.877,1600
522.189,1554
522.503,1572
522.815,1584
523.127,1585
523.441,1542
523.753,1582
524.066,1558
524.378,1565
524.69,1569
525.003,1550
525.315,1596
525.627,1545
525.941,1547
526.253,1565
526.565,1568
526.878,1569
527.19,1600
527.502,1590
527.815,1584
528.127,1556
528.439,1575
528.752,1568
529.064,1579
529.376,1568
529.688,1585
530.001,1565
530.312,1571
530.624,1568
530.936,1578
531.249,1569
531.561,1574
531.873,1586
532.184,1596
532.497,1547
532.809,1548
533.121,1580
533.432,1552
533.744,1572
534.056,1591
534.369,1573
534.68,1577
534.992,1592
535.303,1600
535.615,1560
535.926,1577
536.239,1579
536.551,1593
536.862,1580
537.174,1560
537.485,1567
537.797,1551
538.108,1570
538.42,1575
538.731,1576
539.043,1559
539.354,1563
539.665,1570
539.978,1555
540.29,1558
540.601,1574
540.912,1559
541.224,1578
541.535,1563
541.846,1554
542.157,1572
542.469,1562
542.78,1581
543.091,1575
543.403,1567
543.714,1572
544.025,1554
544.336,1566
544.646,1565
544.957,1587
545.268,1561
545.579,1596
545.891,1608
546.202,1573
546.513,1567
546.824,1576
547.135,1587
547.446,1567
547.757,1585
548.067,1547
548.378,1586
548.689,1566
549,1570
549.311,1597
549.622,1569
549.933,1537
550.242,1548
550.553,1552
550.864,1545
551.175,1558
551.486,1584
551.795,1578
552.106,1536
552.417,1553
552.728,1564
553.039,1555
553.348,1553
553.659,1576
553.97,1536
554.281,1555
554.59,1554
554.901,1528
555.212,1576
555.521,1560
555.832,1541
556.142,1575
556.453,1551
556.762,1547
557.073,1569
557.384,1556
557.693,1556
558.004,1533
558.314,1564
558.623,1572
558.934,1560
559.245,1535
559.554,1577
559.864,1548
560.174,1536
560.484,1570
560.795,1554
561.104,1554
561.414,1540
561.723,1575
562.034,1550
562.344,1532
562.653,1525
562.964,1567
563.273,1577
563.583,1543
563.892,1554
564.202,1549
564.511,1538
564.822,1549
565.131,1532
565.441,1553
565.75,1530
566.06,1535
566.369,1546
566.68,1543
566.988,1541
567.299,1568
567.607,1529
567.918,1541
568.227,1566
568.537,1541
568.845,1526
569.154,1568
569.464,1559
569.773,1540
570.083,1534
570.392,1560
570.701,1567
571.011,1537
571.32,1564
571.63,1555
571.938,1532
572.247,1552
572.557,1541
572.866,1554
573.174,1566
573.484,1547
573.793,1557
574.101,1542
574.411,1546
574.72,1579
575.028,1543
575.338,1554
575.647,1547
575.955,1574
576.264,1554
576.574,1546
576.882,1539
577.191,1560
577.499,1545
577.809,1569
578.117,1551
578.426,1567
578.734,1564
579.044,1550
579.352,1519
579.661,1554
579.969,1525
580.277,1532
580.586,1593
580.895,1538
581.204,1553
581.512,1550
581.82,1550
582.128,1536
582.437,1532
582.746,1547
583.054,1553
583.363,1581
583.671,1545
583.979,1537
584.287,1539
584.595,1563
584.903,1542
585.212,1529
585.52,1563
585.828,1548
586.137,1555
586.445,1544
586.753,1530
587.061,1532
587.369,1561
587.677,1550
587.985,1545
588.293,1580
588.601,1522
588.909,1558
589.217,1535
589.525,1585
589.833,1556
590.141,1565
590.449,1572
590.757,1537
591.065,1559
591.371,1557
591.679,1571
591.987,1549
592.295,1530
592.603,1565
592.911,1564
593.218,1545
593.526,1597
593.834,1541
594.142,1540
594.449,1568.19
594.756,1597.06
595.063,1581.2
595.371,1575.13
595.679,1553.84
595.987,1544.47
596.294,1547.75
596.6,1548.13
596.908,1573.54
597.216,1571.9
597.523,1555.36
597.831,1566.57
598.137,1566.01
598.445,1537.87
598.752,1528.41
599.06,1534.55
599.367,1527.16
599.674,1535.34
599.981,1528.91
600.289,1508.08
600.596,1516.62
600.902,1534.46
601.21,1511.05
601.517,1514.34
601.823,1511.74
602.131,1500.97
602.438,1505.12
602.745,1487.64
603.051,1516.67
603.359,1504.19
603.666,1497.33
603.972,1497.85
604.279,1493.98
604.587,1497.73
604.893,1494.03
605.2,1501.83
605.507,1520.88
605.813,1498.59
606.12,1487.38
606.426,1485.62
606.734,1478.33
607.041,1473.43
607.347,1477.26
607.654,1471.91
607.96,1480.59
608.267,1460.27
608.573,1474.18
608.88,1455.8
609.187,1449.38
609.493,1461.58
609.8,1472.76
610.105,1457.94
610.413,1463.4
610.718,1455.38
611.025,1448.65
611.331,1459.05
611.638,1455.71
611.944,1439.96
612.251,1442.89
612.556,1444.44
612.863,1444.93
613.169,1436.56
613.476,1449.18
613.781,1454.47
614.087,1437.98
614.394,1437.04
614.699,1439.23
615.006,1434.5
615.312,1443.98
615.619,1432.29
615.924,1425.63
616.23,1405.77
616.536,1434.52
616.842,1435.11
617.149,1419.38
617.454,1392.86
617.76,1407.76
618.066,1428.39
618.372,1411.42
618.677,1399.63
618.984,1395.81
619.289,1420.8
619.594,1398.98
619.901,1406.09
620.207,1392.44
620.512,1408.22
620.818,1419.55
621.124,1398.77
621.429,1404.03
621.734,1406.1
622.041,1410.94
622.346,1372.51
622.651,1385.53
622.956,1401.17
623.263,1366.51
623.568,1370.89
623.873,1375.03
624.179,1378.49
624.485,1368.63
624.79,1379.04
625.095,1364.82
625.4,1361.49
625.455,1361
625.764,1367
626.074,1366
626.384,1377
626.694,1339
627.004,1404
627.314,1379
627.623,1368
627.933,1359
628.243,1386
628.553,1363
628.862,1369
629.172,1371
629.482,1363
629.791,1360
630.1,1375
630.411,1351
630.72,1361
631.029,1367
631.339,1383
631.648,1371
631.958,1359
632.268,1395
632.577,1387
632.886,1364
633.196,1373
633.505,1362
633.814,1375
634.123,1361
634.434,1374
634.743,1386
635.051,1375
635.36,1353
635.671,1394
635.979,1369
636.288,1364
636.597,1380
636.906,1376
637.216,1391
637.525,1360
637.834,1365
638.143,1376
638.451,1369
638.762,1357
639.07,1352
639.379,1371
639.688,1358
639.997,1367
640.305,1387
640.614,1374
640.924,1386
641.233,1355
641.541,1359
641.85,1370
642.159,1358
642.467,1356
642.776,1370
643.084,1373
643.393,1379
643.702,1354
644.01,1378
644.32,1380
644.629,1372
644.937,1350
645.246,1377
645.554,1384
645.863,1375
646.171,1364
646.479,1356
646.788,1379
647.096,1386
647.405,1360
647.713,1387
648.021,1348
648.33,1354
648.638,1350
648.947,1358
649.255,1355
649.563,1379
649.872,1339
650.178,1358
650.487,1362
650.795,1357
651.103,1337
651.412,1364
651.72,1375
652.028,1377
652.336,1363
652.644,1371
652.953,1369
653.259,1373
653.568,1368
653.876,1373
654.184,1357
654.492,1378
654.8,1360
655.108,1371
655.415,1380
655.723,1379
656.031,1376
656.339,1354
656.647,1355
656.954,1367
657.262,1368
657.57,1357
657.878,1364
658.186,1366
658.492,1386
658.8,1381
659.108,1386
659.416,1362
659.723,1355
660.03,1370
660.338,1376
660.646,1361
660.953,1363
661.26,1379
661.568,1360
661.875,1365
662.183,1387
662.49,1374
662.797,1370
663.104,1352
663.412,1390
663.719,1353
664.026,1379
664.334,1395
664.64,1360
664.948,1374
665.256,1355
665.562,1348
665.87,1370
666.177,1359
666.484,1360
666.791,1365
667.097,1383
667.405,1346
667.711,1348
668.019,1359
668.326,1352
668.633,1354
668.94,1371
669.246,1367
669.554,1359
669.86,1363
670.167,1344
670.473,1371
670.781,1338
671.087,1358
671.394,1361
671.7,1347
672.008,1375
672.314,1357
672.621,1374
672.927,1342
673.234,1380
673.54,1387
673.848,1354
674.154,1364
674.461,1376
674.767,1402
675.073,1369
675.38,1371
675.686,1363
675.993,1373
676.299,1359
676.605,1360
676.912,1346
677.218,1377
677.525,1365
677.831,1351
678.137,1352
678.444,1380
678.749,1382
679.055,1356
679.362,1364
679.668,1362
679.974,1361
680.281,1352
680.586,1375
680.892,1365
681.199,1360
681.505,1350
681.81,1379
682.116,1348
682.423,1374
682.729,1337
683.034,1352
683.34,1364
683.647,1354
683.952,1358
684.258,1357
684.563,1376
684.87,1377
685.176,1365
685.481,1323
685.786,1347
686.092,1372
686.399,1364
686.704,1371
687.01,1351
687.315,1366
687.62,1348
687.926,1365
688.232,1347
688.538,1372
688.843,1362
689.148,1372
689.454,1328
689.759,1352
690.064,1344
690.37,1341
690.676,1365
690.982,1360
691.287,1358
691.592,1374
691.897,1368
692.202,1368
692.508,1363
692.813,1363
693.118,1354
693.423,1357
693.728,1342
694.033,1364
694.338,1356
694.643,1354
694.949,1358
695.254,1362
695.559,1342
695.864,1354
696.169,1380
696.474,1344
696.779,1354
697.084,1364
697.389,1348
697.694,1353
697.999,1353
698.304,1348
698.609,1370
698.914,1342
699.219,1328
699.523,1358
699.828,1360
700.132,1354
700.437,1358
700.742,1351
701.046,1346
701.351,1346
701.656,1356
701.961,1360
702.266,1382
702.569,1369
702.874,1371
703.178,1359
703.483,1372
703.788,1370
704.093,1385
704.396,1359
704.701,1322
705.005,1353
705.31,1369
705.615,1365
705.918,1364
706.223,1357
706.527,1367
706.832,1339
707.135,1368
707.44,1324
707.744,1370
708.049,1344
708.352,1363
708.656,1372
708.961,1370
709.264,1352
709.569,1355
709.873,1355
710.177,1334
710.481,1329
710.785,1369
711.089,1350
711.392,1353
711.697,1373
712.001,1372
712.304,1346
712.609,1348
712.912,1357
713.216,1341
713.52,1349
713.823,1353
714.128,1366
714.432,1336
714.735,1347
715.039,1352
715.342,1357
715.646,1354
715.949,1357
716.253,1361
716.557,1335
716.86,1357
717.164,1355
717.467,1343
717.771,1334
718.074,1374
718.378,1345
718.681,1346
718.985,1368
719.288,1358
719.592,1359
719.895,1344
720.199,1349
720.501,1343
720.805,1352
721.108,1357
721.411,1349
721.715,1356
722.017,1342
722.321,1343
722.624,1351
722.928,1372
723.23,1316
723.533,1344
723.837,1338
724.139,1341
724.443,1342
724.746,1333
725.048,1355
725.352,1339
725.655,1365
725.957,1356
726.261,1343
726.563,1343
726.866,1327
727.169,1354
727.472,1357
727.774,1352
728.078,1379
728.38,1346
728.683,1346
728.986,1354
729.289,1343
729.591,1347
729.893,1364
730.197,1348
730.499,1356
730.801,1346
731.104,1339
731.407,1360
731.71,1343
732.012,1323
732.314,1370
732.617,1339
732.92,1332
733.222,1363
733.524,1330
733.826,1368
734.128,1356
734.432,1346
734.734,1365
735.036,1347
735.338,1359
735.64,1346
735.942,1359
736.246,1349
736.548,1331
736.85,1335
737.152,1357
737.454,1337
737.755,1330
738.057,1339
738.359,1342
738.661,1362
738.963,1341
739.265,1351
739.568,1359
739.87,1346
740.172,1328
740.474,1344
740.776,1345
741.078,1356
741.38,1328
741.681,1372
741.983,1363
742.285,1355
742.587,1346
742.889,1348
743.19,1337
743.492,1350
743.794,1330
744.096,1366
744.397,1342
744.699,1355
744.999,1362
745.301,1347
745.603,1332
745.904,1322
746.206,1358
746.508,1356
746.809,1316
747.111,1365
747.412,1355
747.714,1349
748.015,1320
748.316,1346
748.617,1351
748.919,1359
749.22,1345
749.522,1341
749.823,1354
750.125,1335
750.425,1344
750.726,1354
751.028,1347
751.329,1360
751.63,1332
751.931,1363
752.232,1340
752.533,1342
752.835,1339
753.135,1349
753.436,1375
753.737,1373
754.039,1335
754.339,1331
754.64,1359
754.941,1352
755.242,1342
755.542,1330
755.844,1358
756.145,1362
756.445,1326
756.746,1358
757.047,1345
757.347,1352
757.648,1361
757.949,1348
758.249,1351
758.55,1370
758.851,1350
759.151,1342
759.452,1334
759.753,1350
760.053,1344
760.354,1316
760.654,1335
760.955,1354
761.256,1354
761.555,1336
761.856,1361
762.156,1341
762.457,1351
762.757,1347
763.058,1351
763.358,1355
763.658,1342
763.959,1329
764.258,1339
764.559,1336
764.859,1347
765.16,1324
765.459,1352
765.76,1359
766.06,1350
766.36,1359
766.66,1354
766.961,1354
767.26,1349
767.559,1324
767.86,1351
768.16,1347
768.46,1316
768.76,1353
769.06,1323
769.36,1331
769.659,1375
769.96,1332
770.259,1322
770.56,1350
770.859,1342
771.158,1332
771.459,1337
771.758,1349
772.057,1325
772.358,1340
772.657,1347
772.956,1357
773.257,1334
773.556,1357
773.855,1349
774.156,1360
774.455,1349
774.754,1349
775.054,1343
775.354,1345
775.653,1346
775.952,1346
776.252,1311
776.551,1348
776.85,1353
777.149,1339
777.45,1336
777.749,1353
778.048,1344
778.346,1360
778.645,1334
778.946,1320
779.245,1330
779.544,1345
779.843,1346
780.141,1367
780.442,1326
780.741,1328
781.039,1362
781.338,1358
781.637,1359
781.936,1346
782.235,1354
782.535,1387
782.834,1340
783.133,1343
783.431,1357
783.73,1354
784.029,1372
784.328,1373
784.626,1343
784.925,1360
785.224,1351
785.522,1345
785.821,1335
786.121,1360
786.42,1368
786.718,1347
787.017,1354
787.316,1369
787.614,1351
787.913,1368
788.211,1373
788.51,1342
788.809,1368
789.107,1358
789.406,1362
789.703,1371
790.001,1362
790.3,1379
790.598,1371
790.897,1378
791.195,1369
791.494,1355
791.792,1368
792.091,1354
792.389,1351
792.687,1361
792.986,1335
793.284,1366
793.581,1341
793.879,1331
794.178,1314
794.476,1342
794.774,1351
795.073,1343
795.37,1343
795.668,1321
795.966,1360
796.264,1333
796.563,1342
796.861,1355
797.158,1324
797.456,1340
797.754,1334
798.052,1339
798.349,1332
798.647,1348
798.945,1344
799.244,1337
799.54,1330
799.839,1338
800.137,1342
800.435,1337
800.731,1331
801.029,1355
801.328,1325
801.624,1310
801.922,1332
802.22,1341
802.518,1345
802.815,1346
803.113,1342
803.411,1319
803.707,1330
804.005,1326
804.302,1342
804.6,1344
804.898,1324
805.194,1344
805.492,1332
805.79,1341
806.087,1309
806.384,1328
806.681,1335
806.979,1338
807.275,1342
807.573,1332
807.871,1339
808.167,1336
808.465,1328
808.761,1341
809.059,1336
809.356,1324
809.653,1306
809.95,1321
810.247,1345
810.544,1323
810.841,1318
811.138,1333
811.435,1334
811.732,1336
812.029,1326
812.325,1306
812.623,1339
812.919,1316
813.215,1338
813.513,1352
813.809,1331
814.107,1344
814.403,1336
814.701,1337
814.997,1334
815.293,1309
815.59,1336
815.886,1347
816.182,1329
816.48,1323
816.776,1324
817.072,1313
817.369,1362
817.666,1328
817.962,1324
818.259,1317
818.555,1334
818.851,1328
819.148,1328
819.444,1327
819.74,1338
820.038,1328
820.333,1305
820.629,1316
820.925,1334
821.223,1310
821.518,1316
821.814,1335
822.11,1323
822.407,1345
822.703,1311
822.999,1330
823.295,1329
823.591,1335
823.888,1326
824.184,1342
824.479,1330
824.775,1326
825.071,1339
825.368,1342
825.664,1324
825.959,1318
826.255,1322
826.551,1329
826.846,1315
827.142,1342
827.438,1321
827.735,1309
828.03,1312
828.326,1341
828.622,1332
828.917,1352
829.213,1338
829.508,1327
829.804,1328
830.1,1353
830.395,1305
830.691,1328
830.986,1356
831.282,1330
831.577,1344
831.873,1305
832.168,1339
832.464,1313
832.759,1322
833.054,1319
833.35,1319
833.645,1346
833.941,1320
834.236,1318
834.531,1322
834.827,1343
835.122,1332
835.417,1316
835.713,1321
836.008,1339
836.303,1318
836.599,1306
836.894,1352
837.188,1354
837.483,1351
837.778,1311
838.074,1306
838.369,1342
838.664,1330
838.959,1311
839.254,1327
839.548,1331
839.843,1339
840.138,1322
840.434,1314
840.729,1340
841.022,1312
841.318,1332
841.613,1316
841.908,1322
842.203,1328
842.497,1324
842.792,1327
843.087,1314
843.382,1321
843.675,1338
843.97,1316
844.265,1322
844.56,1337
844.854,1304
845.149,1339
845.444,1318
845.737,1340
846.032,1344
846.327,1331
846.621,1296
846.916,1313
847.21,1345
847.504,1304
847.799,1336
848.094,1322
848.387,1338
848.682,1333
848.977,1322
849.27,1333
849.565,1339
849.858,1324
850.153,1326
850.448,1327
850.741,1318
851.036,1323
851.329,1325
851.624,1311
851.917,1322
852.212,1312
852.507,1294
852.8,1328
853.094,1300
853.388,1331
853.682,1329
853.976,1314
854.27,1344
854.563,1325
854.858,1303
855.151,1332
855.446,1358
855.739,1334
856.032,1306
856.327,1312
856.62,1340
856.914,1319
857.207,1340
857.502,1311
857.795,1319
858.089,1332
858.382,1313
858.675,1311
858.97,1308
859.263,1305
859.556,1338
859.85,1336
860.143,1331
860.438,1312
860.731,1323
861.024,1320
861.318,1317
861.611,1313
861.904,1328
862.198,1322
862.491,1320
862.784,1322
863.077,1332
863.371,1330
863.664,1320
863.957,1314
864.251,1309
864.544,1333
864.837,1321
865.129,1325
865.424,1305
865.716,1322
866.009,1307
866.302,1313
866.596,1322
866.889,1313
867.181,1314
867.474,1322
867.767,1324
868.059,1319
868.354,1321
868.646,1319
868.939,1290
869.232,1318
869.524,1325
869.817,1319
870.111,1309
870.403,1323
870.696,1330
870.988,1293.78
871.281,1312.16
871.574,1321.57
871.866,1302.72
872.159,1315.6
872.451,1294.4
872.744,1314.45
873.038,1310.92
873.33,1295.3
873.622,1304.2
873.915,1305.5
874.207,1301.45
874.5,1313.38
874.792,1295.22
875.085,1314.31
875.377,1305.93
875.669,1304.27
875.962,1305.07
876.254,1292.16
876.547,1301.48
876.839,1296.87
877.131,1288.01
877.424,1314.08
877.716,1307.27
878.008,1287.13
878.3,1300.92
878.591,1290.26
878.884,1299.25
879.176,1300.78
879.468,1307.95
879.76,1298.58
880.053,1286.93
880.345,1294.8
880.637,1303.53
880.929,1282.07
881.221,1281.01
881.512,1299.17
881.804,1296.78
882.096,1287.67
882.389,1280.6
882.681,1280.6
882.973,1283.92
883.264,1297.55
883.556,1289.57
883.848,1275.56
884.14,1276.11
884.432,1276.3
884.724,1281.95
885.014,1294.67
885.307,1275.5
885.599,1283.77
885.891,1265.91
886.181,1282.68
886.473,1277.87
886.765,1269.29
887.057,1272.29
887.348,1277.57
887.639,1275.71
887.931,1277.4
888.222,1274.23
888.514,1279.82
888.806,1280.03
889.098,1282.17
889.388,1266.34
889.68,1271.68
889.972,1277
890.262,1279.01
890.554,1273.48
890.846,1274.41
891.136,1274.58
891.428,1269.06
891.718,1276.29
892.01,1278.96
892.302,1274.25
892.592,1270.99
892.884,1263.64
893.174,1278.49
893.466,1268.16
893.758,1265.6
894.048,1266.32
894.34,1269.33
894.63,1259.09
894.922,1253.27
895.212,1248.73
895.503,1263.08
895.795,1250.58
896.085,1257.74
896.377,1269.4
896.667,1274.75
896.959,1262.52
897.249,1268.88
897.54,1263.68
897.831,1257.04
898.122,1247.79
898.412,1249.11
898.702,1258.55
898.994,1260.39
899.284,1262.99
899.575,1263.81
899.866,1269.5
900.157,1243.46
900.447,1270.96
900.737,1243.27
901.028,1245.84
901.318,1249.82
901.61,1258.69
901.9,1264.42
902.19,1251.48
902.481,1263.14
902.518,1265
902.813,1260
903.107,1250
903.403,1240
903.698,1245
903.992,1268
904.287,1240
904.583,1246
904.877,1242
905.172,1259
905.466,1269
905.761,1247
906.056,1238
906.35,1228
906.646,1255
906.939,1257
907.235,1258
907.528,1237
907.824,1257
908.117,1240
908.413,1261
908.706,1257
909.002,1258
909.295,1252
909.591,1255
909.884,1263
910.179,1257
910.473,1242
910.768,1246
911.062,1252
911.357,1249
911.651,1226
911.946,1255
912.239,1234
912.534,1240
912.828,1266
913.122,1236
913.417,1250
913.71,1254
914.005,1250
914.299,1258
914.592,1260
914.887,1248
915.181,1242
915.476,1255
915.769,1252
916.063,1264
916.358,1243
916.651,1226
916.945,1261
917.239,1254
917.533,1238
917.826,1248
918.121,1254
918.414,1255
918.708,1233
919.003,1237
919.296,1263
919.589,1256
919.883,1256
920.177,1242
920.471,1250
920.764,1253
921.057,1258
921.352,1246
921.645,1228
921.939,1224
922.232,1249
922.527,1236
922.82,1251
923.113,1258
923.406,1246
923.7,1246
923.994,1249
924.287,1250
924.58,1277
924.874,1255
925.167,1248
925.46,1250
925.754,1220
926.047,1240
926.341,1248
926.634,1252
926.927,1257
927.22,1268
927.513,1244
927.806,1259
928.1,1239
928.393,1244
928.686,1236
928.979,1248
929.272,1247
929.565,1265
929.858,1238
930.151,1251
930.444,1260
930.737,1249
931.03,1248
931.323,1243
931.616,1239
931.909,1251
932.202,1251
932.495,1220
932.787,1247
933.08,1265
933.373,1252
933.666,1250
933.959,1252
934.252,1246
934.544,1255
934.837,1242
935.13,1240
935.423,1239
935.715,1237
936.008,1240
936.301,1254
936.594,1258
936.885,1244
937.178,1243
937.47,1234
937.763,1256
938.056,1248
938.348,1245
938.641,1254
938.933,1257
939.225,1259
939.517,1254
939.81,1252
940.102,1266
940.395,1243
940.688,1260
940.979,1232
941.271,1238
941.564,1262
941.856,1243
942.149,1241
942.44,1257
942.732,1257
943.025,1247
943.317,1245
943.608,1239
943.901,1232
944.193,1258
944.486,1242
944.777,1237
945.069,1247
945.361,1245
945.654,1260
945.945,1224
946.237,1262
946.529,1261
946.82,1251
947.113,1245
947.405,1256
947.696,1250
947.988,1274
948.28,1262
948.571,1230
948.863,1254
949.156,1254
949.446,1244
949.739,1253
950.029,1237
950.322,1256
950.614,1246
950.905,1260
951.197,1251
951.488,1240
951.78,1227
952.072,1261
952.362,1236
952.655,1253
952.945,1252
953.237,1235
953.528,1248
953.82,1236
954.111,1242
954.403,1233
954.693,1251
954.985,1239
955.276,1263
955.568,1232
955.859,1231
956.15,1251
956.441,1224
956.733,1239
957.023,1251
957.315,1246
957.606,1242
957.898,1227
958.188,1253
958.479,1254
958.771,1265
959.061,1244
959.353,1244
959.643,1265
959.934,1248
960.226,1243
960.516,1245
960.808,1260
961.098,1234
961.389,1248
961.68,1224
961.971,1261
962.261,1255
962.553,1242
962.843,1260
963.133,1244
963.425,1236
963.715,1240
964.006,1262
964.297,1241
964.587,1242
964.878,1248
965.168,1242
965.46,1243
965.75,1240
966.04,1237
966.33,1254
966.622,1241
966.912,1250
967.202,1239
967.492,1254
967.784,1224
968.074,1248
968.364,1252
968.654,1248
968.944,1230
969.235,1245
969.526,1234
969.816,1228
970.106,1254
970.396,1235
970.686,1268
970.977,1236
971.267,1232
971.557,1238
971.847,1251
972.137,1260
972.427,1257
972.717,1240
973.007,1233
973.298,1225
973.588,1248
973.878,1242
974.168,1231
974.458,1257
974.748,1248
975.037,1245
975.327,1236
975.617,1247
975.907,1232
976.197,1236
976.487,1246
976.776,1246
977.066,1254
977.356,1240
977.646,1240
977.935,1234
978.225,1248
978.515,1241
978.804,1246
979.094,1245
979.384,1234
979.674,1240
979.963,1228
980.253,1244
980.542,1228
980.832,1218
981.122,1244
981.41,1238
981.7,1238
981.989,1224
982.279,1236
982.568,1237
982.858,1242
983.147,1254
983.437,1234
983.726,1222
984.015,1228
984.304,1249
984.594,1247
984.883,1230
985.172,1238
985.462,1241
985.75,1230
986.039,1248
986.329,1228
986.618,1233
986.908,1244
987.196,1240
987.485,1217
987.774,1204
988.064,1234
988.352,1227
988.641,1250
988.93,1239
989.22,1226
989.508,1249
989.797,1238
990.086,1241
990.374,1251
990.663,1228
990.953,1220
991.242,1230
991.53,1247
991.819,1244
992.108,1244
992.396,1246
992.685,1241
992.974,1246
993.262,1256
993.551,1238
993.839,1241
994.128,1234
994.417,1251
994.705,1230
994.994,1229
995.282,1252
995.571,1226
995.86,1226
996.147,1242
996.436,1230
996.724,1238
997.013,1240
997.301,1230
997.59,1229
997.879,1226
998.166,1235
998.455,1231
998.743,1238
999.032,1204
999.319,1224
999.608,1227
999.896,1236
1000.18,1250
1000.47,1238
1000.76,1241
1001.05,1234
1001.34,1238
1001.62,1233
1001.91,1236
1002.2,1226
1002.49,1236
1002.78,1245
1003.06,1251
1003.35,1252
1003.64,1236
1003.93,1240
1004.22,1231
1004.5,1236
1004.79,1235
1005.08,1234
1005.37,1233
1005.66,1234
1005.94,1220
1006.23,1229
1006.52,1237
1006.81,1243
1007.09,1236
1007.38,1236
1007.67,1222
1007.96,1234
1008.24,1230
1008.53,1241
1008.82,1235
1009.11,1234
1009.4,1250
1009.68,1233
1009.97,1232
1010.26,1238
1010.55,1242
1010.83,1240
1011.12,1240
1011.41,1212
1011.7,1236
1011.98,1242
1012.27,1228
1012.56,1242
1012.84,1229
1013.13,1225
1013.42,1245
1013.71,1228
1013.99,1243
1014.28,1214
1014.57,1226
1014.85,1236
1015.14,1234
1015.43,1200
1015.72,1250
1016,1226
1016.29,1224
1016.58,1228
1016.86,1235
1017.15,1238
1017.44,1234
1017.73,1254
1018.01,1245
1018.3,1214
1018.59,1244
1018.87,1245
1019.16,1238
1019.45,1237
1019.73,1239
1020.02,1228
1020.31,1236
1020.59,1232
1020.88,1220
1021.17,1252
1021.45,1245
1021.74,1232
1022.03,1226
1022.31,1230
1022.6,1238
1022.89,1227
1023.17,1237
1023.46,1246
1023.75,1229
1024.03,1234
1024.32,1214
1024.61,1226
1024.89,1214
1025.18,1230
1025.47,1243
1025.75,1226
1026.04,1226
1026.32,1259
1026.61,1212
1026.9,1223
1027.18,1238
1027.47,1248
1027.76,1198
1028.04,1225
1028.33,1239
1028.62,1239
1028.9,1236
1029.19,1225
1029.47,1242
1029.76,1226
1030.05,1210
1030.33,1213
1030.62,1231
1030.9,1222
1031.19,1222
1031.48,1230
1031.76,1206
1032.05,1248
1032.33,1244
1032.62,1228
1032.9,1230
1033.19,1232
1033.48,1233
1033.76,1231
1034.05,1212
1034.33,1228
1034.62,1204
1034.91,1231
1035.19,1234
1035.48,1236
1035.76,1227
1036.05,1245
1036.34,1231
1036.62,1249
1036.91,1230
1037.19,1222
1037.48,1228
1037.76,1247
1038.05,1221
1038.33,1235
1038.62,1220
1038.9,1240
1039.19,1225
1039.48,1224
1039.76,1214
1040.05,1230
1040.33,1234
1040.62,1232
1040.9,1241
1041.19,1226
1041.47,1239
1041.76,1232
1042.04,1214
1042.33,1213
1042.61,1208
1042.9,1226
1043.18,1214
1043.47,1219
1043.75,1241
1044.04,1221
1044.33,1216
1044.61,1214
1044.9,1224
1045.18,1227
1045.47,1208
1045.75,1238
1046.04,1222
1046.32,1229
1046.6,1231
1046.89,1224
1047.17,1212
1047.46,1204
1047.74,1225
1048.03,1227
1048.31,1234
1048.6,1212
1048.88,1214
1049.17,1228
1049.45,1227
1049.74,1242
1050.02,1237
1050.31,1226
1050.59,1234
1050.88,1236
1051.16,1223
1051.45,1224
1051.73,1210
1052.02,1237
1052.3,1223
1052.58,1220
1052.87,1211
1053.15,1212
1053.44,1220
1053.72,1218
1054.01,1212
1054.29,1234
1054.58,1212
1054.86,1238
1055.14,1214
1055.43,1223
1055.71,1210
1056,1231
1056.28,1223
1056.57,1223
1056.85,1222
1057.13,1235
1057.42,1216
1057.7,1208
1057.99,1212
1058.27,1220
1058.55,1228
1058.84,1207
1059.12,1223
1059.41,1234
1059.69,1209
1059.98,1220
1060.26,1229
1060.54,1227
1060.83,1220
1061.11,1210
1061.39,1216
1061.68,1217
1061.96,1236
1062.25,1229
1062.53,1224
1062.81,1230
1063.1,1219
1063.38,1223
1063.67,1244
1063.95,1224
1064.23,1214
1064.52,1234
1064.8,1230
1065.08,1226
1065.37,1216
1065.65,1215
1065.93,1247
1066.22,1223
1066.5,1240
1066.79,1232
1067.07,1224
1067.35,1182
1067.64,1228
1067.92,1224
1068.2,1218
1068.49,1198
1068.77,1211
1069.05,1220
1069.34,1202
1069.62,1220
1069.9,1227
1070.19,1232
1070.47,1218
1070.75,1232
1071.04,1218
1071.32,1211
1071.6,1190
1071.89,1222
1072.17,1213
1072.45,1222
1072.73,1218
1073.02,1204
1073.3,1220
1073.58,1233
1073.87,1202
1074.15,1212
1074.43,1222
1074.72,1230
1075,1235
1075.28,1220
1075.57,1211
1075.85,1215
1076.13,1209
1076.41,1222
1076.7,1222
1076.98,1226
1077.26,1212
1077.54,1227
1077.83,1202
1078.11,1224
1078.39,1223
1078.68,1229
1078.96,1222
1079.24,1225
1079.52,1210
1079.81,1227
1080.09,1238
1080.37,1199
1080.65,1228
1080.94,1214
1081.22,1225
1081.5,1212
1081.78,1204
1082.07,1208
1082.35,1229
1082.63,1229
1082.91,1212
1083.2,1203
1083.48,1224
1083.76,1219
1084.04,1243
1084.33,1227
1084.61,1216
1084.89,1231
1085.17,1226
1085.46,1227
1085.74,1224
1086.02,1201
1086.3,1212
1086.58,1218
1086.87,1224
1087.15,1222
1087.43,1221
1087.71,1222
1087.99,1209
1088.28,1216
1088.56,1232
1088.84,1229
1089.12,1222
1089.4,1208
1089.69,1212
1089.97,1232
1090.25,1216
1090.53,1220
1090.81,1220
1091.1,1222
1091.38,1212
1091.66,1239
1091.94,1229
1092.22,1234
1092.5,1220
1092.79,1219
1093.07,1207
1093.35,1222
1093.63,1218
1093.91,1234
1094.19,1233
1094.47,1215
1094.76,1210
1095.04,1230
1095.32,1214
1095.6,1223
1095.88,1212
1096.16,1218
1096.45,1213
1096.73,1215
1097.01,1233
1097.29,1216
1097.57,1216
1097.85,1214
1098.13,1227
1098.42,1228
1098.7,1211
1098.98,1219
1099.26,1227
1099.54,1230
1099.82,1206
1100.1,1212
1100.38,1242
1100.66,1228
1100.95,1218
1101.23,1225
1101.51,1190
1101.79,1221
1102.07,1213
1102.35,1224
1102.63,1223
1102.91,1214
1103.19,1236
1103.48,1226
1103.76,1212
1104.04,1222
1104.32,1220
1104.6,1222
1104.88,1238
1105.16,1216
1105.44,1225
1105.72,1221
1106,1235
1106.28,1226
1106.56,1261
1106.85,1233
1107.13,1229
1107.41,1212
1107.69,1218
1107.97,1217
1108.25,1236
1108.53,1221
1108.81,1223
1109.09,1238
1109.37,1214
1109.65,1218
1109.93,1217
1110.21,1217
1110.49,1233
1110.77,1230
1111.05,1202
1111.33,1236
1111.62,1212
1111.89,1220
1112.18,1223
1112.46,1222
1112.74,1218
1113.02,1207
1113.3,1219
1113.58,1230
1113.86,1232
1114.14,1223
1114.42,1220
1114.7,1218
1114.98,1226
1115.26,1215
1115.54,1225
1115.82,1209
1116.1,1233
1116.38,1216
1116.66,1208
1116.94,1220
1117.22,1212
1117.5,1220
1117.78,1216
1118.06,1219
1118.34,1220
1118.62,1230
1118.9,1205
1119.18,1236
1119.46,1213
1119.74,1214
1120.02,1210
1120.3,1222
1120.58,1231
1120.86,1202
1121.14,1214
1121.42,1212
1121.7,1219
1121.98,1212
1122.26,1216
1122.53,1206
1122.81,1209
1123.09,1220
1123.37,1215
1123.65,1227
1123.93,1205
1124.21,1220
1124.49,1217
1124.77,1213
1125.05,1207
1125.33,1208
1125.61,1200
1125.89,1210
1126.17,1222
1126.45,1216
1126.73,1218
1127.01,1222
1127.29,1209
1127.56,1216
1127.84,1212
1128.12,1214
1128.4,1227
1128.68,1207
1128.96,1222
1129.24,1212
1129.52,1214
1129.8,1222
1130.08,1210
1130.36,1194
1130.63,1203
1130.91,1216
1131.19,1230
1131.47,1219
1131.75,1208
1132.03,1222
1132.31,1218
1132.59,1216
1132.87,1214
1133.15,1219
1133.42,1202
1133.7,1221
1133.98,1205
1134.26,1215
1134.54,1220
1134.82,1214
1135.1,1192
1135.38,1223
1135.65,1211.88
1135.93,1213.57
1136.21,1211.42
1136.49,1234.54
1136.77,1209.28
1137.05,1222.32
1137.33,1213.19
1137.6,1209.1
1137.88,1211.6
1138.16,1206.65
1138.44,1211.14
1138.72,1224.38
1139,1209.71
1139.28,1213.62
1139.55,1208.77
1139.83,1215.96
1140.11,1219.18
1140.39,1210.56
1140.67,1206.93
1140.95,1204.63
1141.22,1208.86
1141.5,1212.83
1141.78,1206.65
1142.06,1196.46
1142.34,1212.35
1142.62,1204.49
1142.89,1198.54
1143.17,1202.3
1143.45,1221.09
1143.73,1203.13
1144.01,1199.97
1144.28,1200.95
1144.56,1195.83
1144.84,1210.73
1145.12,1191.98
1145.4,1196.93
1145.67,1205.21
1145.95,1188.33
1146.23,1202.34
1146.51,1201.97
1146.79,1197.3
1147.06,1186.64
1147.34,1189.92
1147.62,1200.2
1147.9,1193.11
1148.18,1210.45
1148.45,1199.86
1148.73,1185.65
1149.01,1207.84
1149.29,1200
1149.56,1201.01
1149.84,1200.54
1150.12,1188.96
1150.4,1186.14
1150.67,1201.12
1150.95,1198.57
1151.23,1200.34
1151.51,1197.45
1151.79,1198.41
1152.06,1198.19
1152.34,1194.16
1152.62,1191.72
1152.89,1200.03
1153.17,1194.5
1153.45,1200.62
1153.73,1201.95
1154,1191.04
1154.28,1193.73
1154.56,1185.64
1154.84,1193.95
1155.11,1191.75
1155.39,1207.68
1155.67,1202.34
1155.95,1190.06
1156.22,1180.94
1156.5,1190.6
1156.78,1192.32
1157.06,1184.28
1157.33,1182.56
1157.61,1182.15
1157.89,1187.45
1158.16,1196.56
1158.44,1194.27
1158.72,1196.78
1158.99,1197.31
1159.27,1196.47
1159.55,1184.6
1159.83,1184.63
1160.1,1187.34
1160.38,1188.06
1160.66,1193.07
1160.93,1185.32
1161.21,1189.41
1161.49,1184.8
1161.76,1182.32
1162.04,1206.23
1162.32,1203.01
1162.59,1197.44
1162.87,1187.99
1163.15,1182.04
1163.42,1188.6
1163.7,1185.43
1163.98,1180.9
1164.25,1166.63
1164.48,1176
1164.76,1190
1165.04,1185
1165.32,1181
1165.6,1173
1165.88,1204
1166.16,1183
1166.45,1196
1166.73,1192
1167.01,1192
1167.29,1169
1167.57,1207
1167.85,1184
1168.13,1178
1168.41,1192
1168.69,1192
1168.97,1197
1169.25,1181
1169.53,1192
1169.82,1186
1170.1,1185
1170.38,1197
1170.66,1184
1170.94,1180
1171.22,1186
1171.5,1183
1171.78,1200
1172.06,1189
1172.34,1189
1172.62,1196
1172.9,1185
1173.18,1200
1173.46,1192
1173.74,1172
1174.02,1184
1174.3,1185
1174.58,1194
1174.86,1187
1175.14,1184
1175.43,1185
1175.7,1183
1175.99,1189
1176.27,1183
1176.55,1188
1176.83,1184
1177.11,1188
1177.39,1190
1177.67,1184
1177.95,1180
1178.23,1186
1178.51,1187
1178.79,1176
1179.07,1206
1179.35,1190
1179.63,1180
1179.91,1177
1180.19,1192
1180.47,1195
1180.75,1172
1181.03,1195
1181.31,1182
1181.59,1168
1181.87,1186
1182.15,1179
1182.43,1182
1182.71,1194
1182.99,1188
1183.27,1174
1183.54,1180
1183.83,1208
1184.1,1198
1184.38,1180
1184.66,1184
1184.94,1202
1185.22,1190
1185.5,1186
1185.78,1188
1186.06,1184
1186.34,1188
1186.62,1194
1186.9,1182
1187.18,1211
1187.46,1203
1187.74,1191
1188.02,1191
1188.3,1187
1188.58,1177
1188.86,1198
1189.14,1183
1189.41,1171
1189.7,1198
1189.97,1188
1190.25,1186
1190.53,1186
1190.81,1180
1191.09,1190
1191.37,1178
1191.65,1186
1191.93,1207
1192.21,1181
1192.49,1178
1192.77,1178
1193.05,1201
1193.32,1196
1193.6,1194
1193.88,1182
1194.16,1208
1194.44,1182
1194.72,1193
1195,1191
1195.28,1189
1195.56,1184
1195.83,1180
1196.11,1181
1196.39,1170
1196.67,1195
1196.95,1192
1197.23,1180
1197.51,1196
1197.79,1179
1198.07,1183
1198.34,1182
1198.62,1191
1198.9,1187
1199.18,1188
1199.46,1187
1199.74,1191
1200.02,1198
1200.29,1193
1200.57,1185
1200.85,1182
1201.13,1181
1201.41,1203
1201.69,1192
1201.97,1174
1202.24,1196
1202.52,1171
1202.8,1194
1203.08,1186
1203.36,1182
1203.64,1181
1203.91,1202
1204.19,1181
1204.47,1198
1204.75,1187
1205.03,1164
1205.31,1183
1205.58,1168
1205.86,1192
1206.14,1180
1206.42,1198
1206.7,1188
1206.97,1192
1207.25,1180
1207.53,1176
1207.81,1181
1208.09,1185
1208.36,1174
1208.64,1180
1208.92,1187
1209.2,1175
1209.48,1186
1209.75,1189
1210.03,1186
1210.31,1186
1210.59,1209
1210.87,1198
1211.14,1193
1211.42,1180
1211.7,1186
1211.98,1188
1212.26,1190
1212.53,1191
1212.81,1188
1213.09,1178
1213.37,1200
1213.64,1192
1213.92,1180
1214.2,1182
1214.48,1164
1214.75,1184
1215.03,1170
1215.31,1188
1215.59,1184
1215.86,1176
1216.14,1180
1216.42,1182
1216.7,1188
1216.97,1183
1217.25,1185
1217.53,1186
1217.81,1185
1218.08,1181
1218.36,1190
1218.64,1178
1218.92,1193
1219.19,1183
1219.47,1188
1219.75,1191
1220.03,1182
1220.3,1200
1220.58,1197
1220.86,1188
1221.13,1178
1221.41,1189
1221.69,1185
1221.97,1175
1222.24,1178
1222.52,1177
1222.8,1188
1223.07,1184
1223.35,1183
1223.63,1193
1223.9,1195
1224.18,1174
1224.46,1188
1224.74,1184
1225.01,1175
1225.29,1194
1225.57,1190
1225.84,1195
1226.12,1175
1226.4,1185
1226.67,1176
1226.95,1174
1227.23,1178
1227.5,1190
1227.78,1202
1228.06,1172
1228.33,1173
1228.61,1177
1228.89,1180
1229.16,1181
1229.44,1190
1229.72,1186
1229.99,1193
1230.27,1184
1230.54,1182
1230.82,1195
1231.1,1181
1231.37,1185
1231.65,1182
1231.93,1176
1232.2,1183
1232.48,1187
1232.76,1176
1233.03,1160
1233.31,1189
1233.59,1168
1233.86,1176
1234.14,1181
1234.41,1182
1234.69,1170
1234.97,1187
1235.24,1190
1235.52,1175
1235.79,1182
1236.07,1195
1236.35,1188
1236.62,1174
1236.9,1180
1237.18,1179
1237.45,1174
1237.73,1201
1238,1178
1238.28,1193
1238.56,1180
1238.83,1185
1239.11,1164
1239.38,1189
1239.66,1198
1239.94,1195
1240.21,1178
1240.49,1174
1240.76,1194
1241.04,1188
1241.31,1200
1241.59,1198
1241.87,1186
1242.14,1182
1242.42,1176
1242.69,1174
1242.97,1194
1243.24,1197
1243.52,1190
1243.8,1179
1244.07,1196
1244.35,1177
1244.62,1193
1244.9,1179
1245.17,1195
1245.45,1172
1245.72,1181
1246,1180
1246.27,1194
1246.55,1188
1246.83,1193
1247.1,1195
1247.38,1167
1247.65,1158
1247.93,1191
1248.2,1174
1248.48,1188
1248.75,1176
1249.03,1196
1249.3,1192
1249.58,1187
1249.85,1190
1250.13,1189
1250.4,1178
1250.68,1185
1250.95,1194
1251.23,1196
1251.5,1167
1251.78,1194
1252.05,1172
1252.33,1186
1252.6,1184
1252.88,1192
1253.15,1185
1253.43,1190
1253.7,1195
1253.98,1189
1254.25,1181
1254.53,1185
1254.8,1185
1255.08,1191
1255.35,1164
1255.63,1167
1255.9,1177
1256.18,1182
1256.45,1190
1256.73,1175
1257,1185
1257.28,1187
1257.55,1177
1257.82,1186
1258.1,1178
1258.37,1203
1258.65,1158
1258.92,1186
1259.2,1179
1259.47,1182
1259.75,1192
1260.02,1170
1260.3,1180
1260.57,1164
1260.84,1192
1261.12,1188
1261.39,1187
1261.67,1173
1261.94,1186
1262.22,1190
1262.49,1172
1262.76,1188
1263.04,1170
1263.31,1170
1263.59,1192
1263.86,1178
1264.14,1183
1264.41,1170
1264.68,1191
1264.96,1160
1265.23,1182
1265.51,1169
1265.78,1194
1266.05,1172
1266.33,1188
1266.6,1174
1266.88,1170
1267.15,1186
1267.42,1182
1267.7,1186
1267.97,1183
1268.25,1169
1268.52,1181
1268.79,1174
1269.07,1186
1269.34,1189
1269.62,1201
1269.89,1199
1270.16,1194
1270.44,1186
1270.71,1190
1270.98,1211
1271.26,1187
1271.53,1208
1271.81,1186
1272.08,1212
1272.35,1203
1272.63,1195
1272.9,1209
1273.17,1206
1273.45,1198
1273.72,1195
1273.99,1216
1274.27,1188
1274.54,1210
1274.81,1194
1275.09,1195
1275.36,1203
1275.63,1196
1275.91,1192
1276.18,1186
1276.45,1194
1276.73,1207
1277,1186
1277.27,1169
1277.55,1203
1277.82,1179
1278.09,1195
1278.37,1184
1278.64,1180
1278.91,1194
1279.19,1184
1279.46,1174
1279.73,1187
1280.01,1169
1280.28,1162
1280.55,1187
1280.82,1177
1281.1,1166
1281.37,1182
1281.64,1187
1281.92,1180
1282.19,1172
1282.46,1185
1282.74,1174
1283.01,1176
1283.28,1196
1283.55,1186
1283.83,1172
1284.1,1161
1284.37,1183
1284.64,1182
1284.92,1166
1285.19,1178
1285.46,1182
1285.74,1182
1286.01,1172
1286.28,1181
1286.55,1175
1286.83,1187
1287.1,1188
1287.37,1189
1287.64,1170
1287.92,1174
1288.19,1174
1288.46,1176
1288.73,1176
1289.01,1168
1289.28,1174
1289.55,1181
1289.82,1176
1290.1,1164
1290.37,1166
1290.64,1190
1290.91,1174
1291.19,1171
1291.46,1175
1291.73,1166
1292,1190
1292.27,1181
1292.55,1154
1292.82,1168
1293.09,1184
1293.36,1170
1293.64,1185
1293.91,1162
1294.18,1182
1294.45,1162
1294.72,1180
1295,1180
1295.27,1174
1295.54,1181
1295.81,1176
1296.08,1182
1296.36,1170
1296.63,1182
1296.9,1183
1297.17,1158
1297.44,1170
1297.72,1164
1297.99,1167
1298.26,1188
1298.53,1186
1298.8,1182
1299.07,1187
1299.35,1181
1299.62,1160
1299.89,1177
1300.16,1170
1300.43,1186
1300.7,1173
1300.98,1175
1301.25,1172
1301.52,1172
1301.79,1182
1302.06,1183
1302.33,1171
1302.61,1166
1302.88,1201
1303.15,1187
1303.42,1163
1303.69,1152
1303.96,1164
1304.23,1180
1304.51,1176
1304.78,1168
1305.05,1170
1305.32,1168
1305.59,1186
1305.86,1189
1306.13,1168
1306.4,1173
1306.68,1170
1306.95,1186
1307.22,1175
1307.49,1182
1307.76,1178
1308.03,1179
1308.3,1164
1308.57,1179
1308.84,1170
1309.12,1163
1309.39,1178
1309.66,1175
1309.93,1168
1310.2,1179
1310.47,1170
1310.74,1176
1311.01,1168
1311.28,1172
1311.55,1175
1311.82,1173
1312.1,1170
1312.37,1169
1312.64,1164
1312.91,1174
1313.18,1179
1313.45,1187
1313.72,1179
1313.99,1185
1314.26,1170
1314.53,1179
1314.8,1190
1315.07,1156
1315.34,1172
1315.62,1170
1315.89,1182
1316.16,1144
1316.43,1178
1316.7,1164
1316.97,1178
1317.24,1168
1317.51,1183
1317.78,1166
1318.05,1163
1318.32,1167
1318.59,1185
1318.86,1163
1319.13,1171
1319.4,1186
1319.67,1160
1319.94,1154
1320.21,1168
1320.48,1181
1320.75,1177
1321.02,1158
1321.29,1174
1321.56,1187
1321.83,1174
1322.11,1173
1322.38,1185
1322.65,1188
1322.92,1201
1323.19,1202
1323.46,1190
1323.73,1181
1324,1185
1324.27,1190
1324.54,1176
1324.81,1186
1325.08,1173
1325.34,1174
1325.61,1144
1325.88,1170
1326.15,1176
1326.42,1160
1326.69,1168
1326.96,1183
1327.23,1164
1327.5,1180
1327.77,1171
1328.04,1170
1328.31,1178
1328.58,1168
1328.85,1167
1329.12,1162
1329.39,1190
1329.66,1166
1329.93,1171
1330.2,1178
1330.47,1172
1330.74,1180
1331.01,1172
1331.28,1160
1331.55,1163
1331.82,1168
1332.09,1166
1332.36,1174
1332.63,1164
1332.89,1181
1333.16,1160
1333.43,1163
1333.7,1173
1333.97,1170
1334.24,1179
1334.51,1161
1334.78,1188
1335.05,1166
1335.32,1166
1335.59,1160
1335.86,1165
1336.13,1171
1336.4,1153
1336.66,1173
1336.93,1189
1337.2,1167
1337.47,1187
1337.74,1178
1338.01,1183
1338.28,1160
1338.55,1170
1338.82,1154
1339.09,1165
1339.36,1157
1339.62,1168
1339.89,1177
1340.16,1151
1340.43,1182
1340.7,1180
1340.97,1150
1341.24,1170
1341.51,1168
1341.77,1165
1342.04,1154
1342.31,1165
1342.58,1181
1342.85,1176
1343.12,1164
1343.39,1163
1343.66,1158
1343.92,1164
1344.19,1162
1344.46,1180
1344.73,1173
1345,1164
1345.27,1164
1345.54,1181
1345.8,1178
1346.07,1168
1346.34,1154
1346.61,1176
1346.88,1184
1347.15,1162
1347.42,1182
1347.68,1179
1347.95,1163
1348.22,1171
1348.49,1178
1348.76,1158
1349.02,1174
1349.29,1178
1349.56,1165
1349.83,1164
1350.1,1174
1350.37,1157
1350.63,1159
1350.9,1162
1351.17,1158
1351.44,1179
1351.71,1163
1351.97,1166
1352.24,1163
1352.51,1170
1352.78,1174
1353.05,1162
1353.31,1182
1353.58,1167
1353.85,1171
1354.12,1171
1354.39,1161
1354.65,1168
1354.92,1156
1355.19,1162
1355.46,1158
1355.73,1166
1355.99,1180
1356.26,1177
1356.53,1170
1356.8,1180
1357.06,1172
1357.33,1164
1357.6,1171
1357.87,1179
1358.14,1168
1358.4,1179
1358.67,1176
1358.94,1169
1359.2,1180
1359.47,1165
1359.74,1190
1360.01,1183
1360.28,1168
1360.54,1177
1360.81,1170
1361.08,1174
1361.34,1158
1361.61,1174
1361.88,1168
1362.15,1163
1362.41,1168
1362.68,1173
1362.95,1176
1363.22,1164
1363.48,1170
1363.75,1164
1364.02,1159
1364.29,1164
1364.55,1181
1364.82,1170
1365.09,1150
1365.35,1173
1365.62,1157
1365.89,1171
1366.15,1165
1366.42,1176
1366.69,1169
1366.96,1148
1367.22,1164
1367.49,1166
1367.76,1168
1368.02,1169
1368.29,1159
1368.56,1174
1368.83,1157
1369.09,1170
1369.36,1182
1369.63,1171
1369.89,1156
1370.16,1154
1370.43,1176
1370.69,1164
1370.96,1168
1371.23,1162
1371.49,1168
1371.76,1160
1372.03,1177
1372.29,1164
1372.56,1164
1372.83,1167
1373.09,1160
1373.36,1170
1373.63,1170
1373.89,1132
1374.16,1158
1374.43,1142
1374.69,1170
1374.96,1169
1375.22,1176
1375.49,1168
1375.76,1166
1376.02,1165
1376.29,1176
1376.56,1154
1376.82,1162
1377.09,1156
1377.36,1161
1377.62,1154
1377.89,1168
1378.15,1167
1378.42,1165
1378.69,1170
1378.95,1167
1379.22,1164
1379.48,1156
1379.75,1156
1380.02,1166
1380.28,1167
1380.55,1164
1380.82,1170
1381.08,1168
1381.35,1179
1381.61,1166
1381.88,1165
1382.15,1160
1382.41,1156
1382.68,1166
1382.94,1179
1383.21,1168
1383.48,1182
1383.74,1168
1384.01,1164
1384.27,1157
1384.54,1150
1384.8,1150
1385.07,1164
1385.34,1167
1385.6,1171
1385.87,1167
1386.13,1158
1386.4,1150
1386.66,1171
1386.93,1162
1387.2,1160
1387.46,1164
1387.73,1167
1387.99,1158
1388.26,1152
1388.52,1152
1388.79,1158
1389.05,1173
1389.32,1150.01
1389.58,1167.64
1389.85,1154.07
1390.12,1169.11
1390.38,1165.33
1390.65,1165.01
1390.91,1149.23
1391.18,1154.09
1391.44,1157.5
1391.71,1144.03
1391.97,1159.75
1392.24,1154.33
1392.5,1155.18
1392.77,1161.38
1393.03,1163.34
1393.3,1163.65
1393.56,1159.61
1393.83,1172.29
1394.09,1151.6
1394.36,1157.53
1394.62,1153.47
1394.89,1157.05
1395.15,1160.97
1395.42,1158.29
1395.68,1153.04
1395.95,1178.36
1396.21,1167.63
1396.48,1154.38
1396.74,1167.11
1397.01,1165.33
1397.27,1157.97
1397.54,1154.5
1397.8,1161.13
1398.07,1163.4
1398.33,1155.42
1398.6,1157.1
1398.86,1150.39
1399.13,1161.1
1399.39,1149.94
1399.66,1167.74
1399.92,1150.55
1400.19,1159.74
1400.45,1169.76
1400.72,1159
1400.98,1159.19
1401.24,1157.96
1401.51,1163.79
1401.77,1163.28
1402.04,1156.24
1402.3,1160.9
1402.57,1157.04
1402.83,1163.92
1403.1,1149.82
1403.36,1153.08
1403.63,1156.61
1403.89,1149.43
1404.15,1154.38
1404.42,1153.69
1404.68,1160.85
1404.95,1170.6
1405.21,1148.42
1405.48,1148.39
1405.74,1159.67
1406,1151.97
1406.27,1155.91
1406.53,1154.15
1406.8,1153.45
1407.06,1160.3
1407.33,1151.46
1407.59,1144.2
1407.85,1151.17
1408.12,1147.9
1408.38,1138.64
1408.65,1154.69
1408.91,1157.27
1409.17,1156.15
1409.44,1150.58
1409.7,1149.23
1409.97,1152.05
1410.23,1153.19
1410.49,1161.49
1410.76,1153.85
1411.02,1146.34
1411.29,1150.05
1411.55,1158.34
1411.81,1162.95
1412.08,1155.89
1412.34,1154.31
1412.61,1155.75
1412.87,1158.72
1413.13,1156.88
1413.4,1146.37
1413.66,1154.78
1413.92,1151.87
1414.19,1138.91
1414.45,1146.89
1414.71,1148.67
1414.98,1152.44
1415.24,1158.54
1415.44,1160
1415.71,1140
1415.98,1150
1416.25,1140
1416.52,1148
1416.78,1156
1417.05,1152
1417.32,1152
1417.59,1143
1417.85,1158
1418.12,1166
1418.39,1154
1418.66,1138
1418.93,1157
1419.19,1165
1419.46,1169
1419.73,1158
1420,1140
1420.26,1158
1420.53,1144
1420.8,1146
1421.07,1154
1421.33,1146
1421.6,1158
1421.87,1169
1422.14,1145
1422.4,1151
1422.67,1155
1422.94,1164
1423.21,1148
1423.47,1145
1423.74,1148
1424.01,1160
1424.28,1138
1424.54,1152
1424.81,1157
1425.08,1150
1425.35,1151
1425.61,1152
1425.88,1151
1426.15,1142
1426.41,1148
1426.68,1151
1426.95,1154
1427.21,1142
1427.48,1158
1427.75,1162
1428.02,1148
1428.28,1153
1428.55,1149
1428.82,1151
1429.08,1156
1429.35,1152
1429.62,1158
1429.89,1140
1430.15,1147
1430.42,1154
1430.69,1154
1430.95,1140
1431.22,1157
1431.49,1141
1431.75,1165
1432.02,1150
1432.29,1157
1432.55,1160
1432.82,1134
1433.09,1155
1433.35,1144
1433.62,1153
1433.89,1156
1434.15,1170
1434.42,1150
1434.69,1146
1434.95,1142
1435.22,1145
1435.49,1157
1435.75,1149
1436.02,1157
1436.29,1142
1436.55,1145
1436.82,1144
1437.09,1145
1437.35,1162
1437.62,1155
1437.88,1149
1438.15,1136
1438.42,1165
1438.68,1146
1438.95,1148
1439.22,1160
1439.48,1148
1439.75,1144
1440.02,1166
1440.28,1132
1440.55,1154
1440.81,1152
1441.08,1148
1441.35,1124
1441.61,1156
1441.88,1155
1442.15,1150
1442.41,1146
1442.68,1162
1442.94,1167
1443.21,1166
1443.48,1165
1443.74,1166
1444.01,1165.67
1444.27,1163.67
1444.54,1163.47
1444.81,1158
1445.07,1164
1445.34,1144
1445.6,1124
1445.87,1143
1446.13,1136
1446.4,1155
1446.67,1156
1446.93,1142
1447.2,1135
1447.46,1142
1447.73,1152
1447.99,1147
1448.26,1147
1448.53,1158
1448.79,1157
1449.06,1163
1449.32,1152
1449.59,1132
1449.85,1136
1450.12,1163
1450.39,1164
1450.65,1152
1450.92,1156
1451.18,1156
1451.45,1162
1451.71,1142
1451.98,1156
1452.24,1140
1452.51,1153
1452.77,1160
1453.04,1160
1453.3,1153
1453.57,1156
1453.84,1140
1454.1,1148
1454.37,1154
1454.63,1140
1454.9,1165
1455.16,1148
1455.43,1156
1455.69,1152
1455.96,1152
1456.22,1154
1456.49,1134
1456.75,1145
1457.02,1150
1457.28,1144
1457.55,1144
1457.81,1149
1458.08,1157
1458.34,1142
1458.61,1144
1458.87,1130
1459.14,1157
1459.4,1144
1459.67,1147
1459.93,1143
1460.2,1143
1460.46,1159
1460.73,1156
1460.99,1158
1461.26,1150
1461.52,1150
1461.79,1153
1462.05,1142
1462.32,1151
1462.58,1138
1462.85,1152
1463.11,1152
1463.38,1137
1463.64,1143
1463.91,1162
1464.17,1153
1464.43,1156
1464.7,1160
1464.96,1165
1465.23,1158
1465.49,1154
1465.76,1145
1466.02,1150
1466.29,1151
1466.55,1167
1466.81,1154
1467.08,1142
1467.34,1140
1467.61,1146
1467.87,1148
1468.14,1163
1468.4,1132
1468.66,1156
1468.93,1134
1469.19,1151
1469.46,1143
1469.72,1155
1469.99,1148
1470.25,1163
1470.51,1156
1470.78,1150
1471.04,1148
1471.31,1144
1471.57,1147
1471.84,1156
1472.1,1138
1472.36,1153
1472.63,1144
1472.89,1161
1473.15,1148
1473.42,1151
1473.68,1148
1473.95,1145
1474.21,1150
1474.47,1140
1474.74,1158
1475,1161
1475.27,1130
1475.53,1142
1475.79,1157
1476.06,1151
1476.32,1160
1476.59,1142
1476.85,1149
1477.11,1155
1477.38,1142
1477.64,1146
1477.9,1149
1478.17,1132
1478.43,1150
1478.69,1149
1478.96,1150
1479.22,1156
1479.48,1138
1479.75,1160
1480.01,1155
1480.28,1155
1480.54,1149
1480.8,1153
1481.07,1152
1481.33,1151
1481.59,1160
1481.86,1147
1482.12,1120
1482.38,1143
1482.65,1146
1482.91,1159
1483.17,1152
1483.44,1142
1483.7,1157
1483.96,1146
1484.23,1151
1484.49,1138
1484.75,1163
1485.02,1150
1485.28,1152
1485.54,1158
1485.81,1150
1486.07,1158
1486.33,1154
1486.59,1144
1486.86,1150
1487.12,1163
1487.38,1160
1487.65,1149
1487.91,1169
1488.17,1148
1488.44,1163
1488.7,1136
1488.96,1142
1489.22,1153
1489.49,1140
1489.75,1147
1490.01,1161
1490.28,1160
1490.54,1148
1490.8,1156
1491.06,1146
1491.33,1158
1491.59,1152
1491.85,1149
1492.11,1151
1492.38,1147
1492.64,1159
1492.9,1144
1493.17,1165
1493.43,1154
1493.69,1150
1493.95,1144
1494.21,1153
1494.48,1142
1494.74,1148
1495,1160
1495.27,1148
1495.53,1149
1495.79,1146
1496.05,1152
1496.31,1155
1496.58,1155
1496.84,1152
1497.1,1139
1497.36,1144
1497.63,1154
1497.89,1155
1498.15,1130
1498.41,1148
1498.68,1153
1498.94,1147
1499.2,1158
1499.46,1144
1499.72,1149
1499.99,1150
