Raman Shift (1/cm),Intensity (Counts)
302.468,2651
302.977,2684
303.486,2693
303.995,2686
304.503,2659
305.012,2645
305.521,2675
306.03,2654
306.538,2691
307.047,2652
307.556,2705
308.064,2706
308.573,2706
309.082,2620
309.59,2710
310.097,2665
310.605,2641
311.114,2667
311.622,2715
312.13,2626
312.639,2622
313.147,2703
313.655,2670
314.164,2666
314.672,2664
315.18,2695
315.686,2687
316.195,2616
316.703,2721
317.211,2719
317.719,2684
318.227,2724
318.735,2678
319.241,2659
319.749,2666
320.257,2619
320.765,2650
321.273,2712
321.781,2701
322.287,2681
322.794,2726
323.302,2684
323.81,2673
324.318,2697
324.823,2628
325.331,2693
325.839,2677
326.346,2722
326.852,2668
327.359,2712
327.867,2724
328.374,2674
328.88,2696
329.387,2677
329.895,2655
330.402,2713
330.907,2706
331.415,2730
331.922,2667
332.429,2699
332.935,2676
333.442,2695
333.949,2685
334.454,2722
334.961,2671
335.468,2739
335.973,2704
336.481,2706
336.988,2741
337.493,2751
338,2710
338.506,2724
339.011,2688
339.518,2670
340.023,2650
340.53,2722
341.037,2766
341.541,2681
342.048,2698
342.555,2720
343.06,2761
343.566,2679
344.071,2761
344.577,2750
345.082,2790
345.589,2711
346.095,2690
346.6,2722
347.106,2751
347.61,2732
348.117,2727
348.621,2772
349.128,2753
349.632,2789
350.138,2742
350.642,2777
351.149,2735
351.653,2704
352.159,2741
352.663,2766
353.169,2740
353.673,2726
354.179,2767
354.683,2745
355.189,2755
355.693,2745
356.199,2735
356.703,2721
357.209,2728
357.713,2717
358.219,2742
358.723,2759
359.226,2720
359.732,2756
360.236,2746
360.742,2799
361.245,2690
361.751,2703
362.255,2742
362.758,2795
363.264,2750
363.767,2742
364.271,2744
364.776,2759
365.28,2711
365.785,2735
366.289,2814
366.792,2796
367.297,2754
367.801,2759
368.304,2761
368.809,2753
369.312,2754
369.815,2783
370.321,2791
370.824,2811
371.327,2776
371.83,2769
372.335,2788
372.838,2755
373.341,2776
373.846,2783
374.349,2743
374.852,2775
375.355,2775
375.86,2773
376.362,2782
376.865,2764
377.368,2761
377.873,2732
378.376,2772
378.878,2727
379.381,2794
379.883,2779
380.388,2712
380.891,2772
381.393,2782
381.896,2769
382.398,2753
382.903,2772
383.405,2740
383.908,2788
384.41,2776
384.912,2812
385.415,2742
385.919,2752
386.421,2753
386.923,2821
387.426,2806
387.928,2795
388.43,2828
388.932,2807
389.434,2853
389.938,2858
390.44,2832
390.942,2837
391.444,2872
391.946,2819
392.448,2835
392.95,2838
393.452,2791
393.954,2850
394.456,2768
394.958,2925
395.459,2840
395.961,2887
396.463,2855
396.965,2930
397.466,2894
397.968,2851
398.469,2939
398.971,2920
399.473,2911
399.974,2918
400.476,2868
400.977,2902
401.479,2917
401.98,2909
402.481,2865
402.983,2904
403.484,2891
403.985,2862
404.487,2900
404.988,2875
405.489,2906
405.99,2861
406.491,2910
406.993,2836
407.494,2840
407.995,2861
408.496,2888
408.995,2871
409.496,2854
409.997,2841
410.498,2800
410.999,2850
411.5,2863
412,2797
412.501,2817
413.002,2801
413.501,2823
414.002,2883
414.502,2784
415.003,2818
415.504,2824
416.004,2877
416.503,2819
417.004,2838
417.504,2838
418.005,2844
418.505,2885
419.004,2825
419.504,2837
420.004,2849
420.505,2822
421.003,2855
421.504,2839
422.004,2832
422.504,2817
423.004,2818
423.503,2858
424.003,2843
424.503,2875
425.001,2800
425.501,2861
426.001,2832
426.501,2805
426.999,2869
427.499,2834
427.999,2833
428.497,2907
428.997,2903
429.497,2864
429.995,2781
430.495,2850
430.995,2841
431.493,2820
431.992,2853
432.492,2818
432.99,2829
433.489,2861
433.989,2835
434.487,2852
434.986,2883
435.486,2883
435.983,2853
436.483,2862
436.98,2838
437.48,2878
437.977,2911
438.477,2897
438.976,2820
439.473,2886
439.973,2939
440.47,2911
440.969,2866
441.467,2969
441.966,2860
442.465,2933
442.962,2896
443.461,2904
443.958,2906
444.457,2879
444.954,2860
445.453,2890
445.95,2842
446.449,2838
446.946,2860
447.445,2852
447.942,2867
448.441,2810
448.938,2856
449.437,2847
449.933,2884
450.43,2820
450.929,2874
451.426,2875
451.924,2811
452.421,2809
452.92,2834
453.416,2871
453.913,2852
454.411,2814
454.908,2867
455.406,2831
455.903,2813
456.399,2853
456.897,2896
457.394,2873
457.892,2862
458.388,2863
458.885,2854
459.383,2901
459.879,2886
460.375,2875
460.874,2912
461.37,2847
461.866,2848
462.364,2856
462.86,2868
463.356,2880
463.854,2863
464.35,2867
464.846,2901
465.342,2857
465.84,2862
466.336,2873
466.832,2871
467.329,2898
467.825,2903
468.321,2886
468.817,2889
469.314,2892.67
469.81,2889.22
470.306,2890.3
470.801,2890.73
471.297,2890.08
471.795,2890.37
472.29,2890.39
472.786,2890.28
473.281,2890.35
473.779,2908.88
474.274,2908.8
474.769,2964.49
475.265,2890
475.76,2889
476.256,2866
476.753,2910
477.248,2880
477.743,2852
478.239,2923
478.734,2852
479.229,2852
479.724,2881
480.221,2904
480.716,2852
481.211,2931
481.706,2881
482.201,2892
482.696,2878
483.191,2922
483.686,2874
484.181,2924
484.676,2947
485.171,2857
485.668,2897
486.163,2890
486.657,2913
487.152,2899
487.647,2901
488.141,2925
488.636,2837
489.131,2889
489.625,2909
490.12,2870
490.614,2906
491.109,2896
491.603,2954
492.098,2882
492.592,2897
493.087,2855
493.581,2897
494.076,2894
494.57,2889
495.064,2899
495.559,2917
496.053,2888
496.547,2915
497.041,2874
497.533,2873
498.027,2870
498.522,2943
499.016,2916
499.51,2899
500.004,2885
500.498,2918
500.992,2904
501.486,2892
501.98,2940
502.472,2940
502.965,2904
503.459,2956
503.953,2884
504.447,2922
504.941,2937
505.434,2935
505.926,2905
506.42,2930
506.913,2931
507.407,2899
507.901,2974
508.394,2934
508.886,2930
509.379,2972
509.873,2920
510.366,2910
510.86,2916
511.351,2980
511.845,2943
512.338,2974
512.831,2850
513.323,2925
513.816,3000
514.309,2981
514.802,2926
515.294,2926
515.787,2913
516.28,2944
516.771,2934
517.264,2929
517.757,2934
518.25,2891
518.741,2897
519.234,2937
519.727,2949
520.218,2868
520.711,2978
521.204,2923
521.695,2950
522.188,2891
522.681,2944
523.171,2870
523.664,2975
524.157,2902
524.647,2954
525.14,2885
525.631,2912
526.123,3009
526.616,2975
527.107,2956
527.599,3001
528.09,2953
528.582,2949
529.075,2971
529.565,3016
530.057,2965
530.548,3027
531.04,3032
531.53,3014
532.023,3105
532.515,3064
533.005,3087
533.497,3165
533.988,3182
534.48,3121
534.97,3168
535.462,3117
535.952,3155
536.444,3107
536.934,3074
537.426,3017
537.916,3023
538.408,3055
538.898,3007
539.388,3084
539.88,3083
540.37,2995
540.862,3019
541.351,3076
541.843,3037
542.333,3011
542.825,3065
543.314,3119
543.804,3100
544.296,3156
544.785,3269
545.277,3297
545.766,3333
546.256,3399
546.747,3323
547.237,3285
547.726,3231
548.218,3187
548.707,3196
549.198,3104
549.688,3115
550.177,3118
550.668,3114
551.158,3017
551.647,3024
552.136,3001
552.627,3007
553.116,3093
553.606,3004
554.097,2972
554.586,2980
555.075,2970
555.566,2998
556.055,3026
556.544,2983
557.033,2922
557.524,2981
558.013,2931
558.501,3002
558.99,3013
559.481,2970
559.97,2982
560.459,2975
560.947,2983
561.436,2960
561.927,2977
562.415,3007
562.904,2963
563.393,2966
563.881,3004
564.372,2943
564.86,2999
565.349,2979
565.837,3032
566.326,2997
566.814,2956
567.304,2966
567.793,3002
568.281,3047
568.769,3005
569.258,2964
569.746,2968
570.234,3020
570.722,3050
571.211,2966
571.701,2985
572.189,2960
572.677,2973
573.165,3046
573.653,2980
574.141,2952
574.629,2977
575.117,2937
575.605,3038
576.093,2983
576.581,2959
577.069,2965
577.557,2973
578.044,3049
578.532,3079
579.02,2957
579.508,2950
579.995,2987
580.483,2998
580.971,2965
581.458,3005
581.946,3034
582.433,2997
582.921,2939
583.409,2989
583.896,3005
584.383,2963
584.871,2991
585.358,3006
585.846,2962
586.333,3012
586.82,2997
587.306,2970
587.793,3049
588.28,2992
588.768,3031
589.255,2991
589.742,3006
590.229,3026
590.716,3051
591.203,3009
591.688,2993
592.175,3054
592.662,3037
593.149,3008
593.636,3028
594.123,3078
594.608,3110
595.095,3176
595.582,3209
596.069,3311
596.556,3328
597.043,3368
597.527,3389
598.014,3290
598.501,3254
598.987,3112
599.472,3049
599.959,3055
600.445,3004
600.932,2986
601.416,2932
601.903,3051
602.389,2920
602.876,2972
603.36,2927
603.847,2977
604.333,2976
604.82,2952
605.304,2995
605.79,3005
606.277,2973
606.761,2923
607.247,2922
607.733,2970
608.217,2926
608.704,2972
609.19,3004
609.674,2960
610.16,2945
610.646,2916
611.13,2969
611.616,2946
612.1,2982
612.586,2995
613.072,2975
613.556,3016
614.042,2995
614.526,2921
615.011,2965
615.497,2986
615.981,2964
616.467,2988
616.95,2950
617.436,2968
617.92,2943
618.405,2947
618.891,2915
619.375,2994
619.86,2979
620.344,2932
620.829,2936
621.313,2930
621.798,3028
622.282,2922
622.767,2998
623.25,2973
623.736,2976
624.219,2949
624.704,2911
625.188,2990
625.673,2939
626.156,2957
626.639,2980
627.125,2951
627.608,2973
628.093,3005
628.576,2873
629.061,2955
629.544,2957
630.027,3025
630.512,2960
630.995,2951
631.48,3002
631.963,2937
632.446,3013
632.931,2989
633.414,3057
633.898,2959
634.381,2952
634.864,2937
635.349,2941
635.831,2988
636.314,2984
636.799,2985
637.281,3001
637.764,2980
638.249,3015
638.731,2968
639.214,2948
639.696,3022
640.181,2971
640.663,2965
641.146,3015
641.63,2988
642.112,2955
642.595,2944
643.077,2996
643.561,3019
644.044,2994
644.526,2980
645.008,3008
645.492,3016
645.974,3006
646.456,2965
646.939,2991
647.421,2996
647.905,2963
648.387,3044
648.869,2979
649.351,3037
649.833,3021
650.317,3030
650.799,2950
651.281,3012
651.762,2966
652.244,3035
652.726,3080
653.208,3059
653.692,3043
654.173,3017
654.655,3029
655.137,3068
655.618,2970
656.1,3065
656.582,3044
657.063,3036
657.545,3044
658.028,2996
658.51,3015
658.991,3049
659.473,2996
659.954,3004
660.436,3062
660.917,3053
661.398,3020
661.88,2987
662.361,3007
662.842,3044
663.323,3029
663.805,3018
664.286,3054
664.767,2993
665.248,3022
665.729,2998
666.21,3070
666.691,3001
667.172,3022
667.654,3060
668.134,3065
668.615,3027
669.096,3096
669.577,2990
670.058,3008
670.539,2997
671.018,3054
671.499,3036
671.979,3038
672.46,3018
672.941,3055
673.422,3048
673.902,3049
674.383,3002
674.864,3078
675.344,3065
675.823,3061
676.303,3053
676.784,3077
677.264,3061
677.745,3047
678.225,3074
678.704,3053
679.184,3076
679.665,3081
680.145,3091
680.625,3032
681.104,3021
681.584,3017
682.064,3059
682.544,3116
683.025,3099
683.503,3118
683.983,3027
684.463,3013
684.943,3084
685.421,3045
685.901,3052
686.381,3042
686.861,3061
687.339,3101
687.819,3032
688.299,3087
688.779,3051
689.257,3045
689.737,3071
690.217,3017
690.694,3079
691.174,3094
691.654,3080
692.132,3062
692.611,3040
693.091,3068
693.569,3090
694.048,3079
694.528,3119
695.005,3075
695.485,3065
695.962,3042
696.442,3037
696.921,3078
697.399,3080
697.878,3032
698.356,3044
698.835,3060
699.314,3074
699.792,3102
700.271,3071
700.748,3085
701.227,3043
701.705,3018
702.184,3126
702.663,3070
703.14,3045
703.619,3064
704.096,3119
704.575,3107
705.052,3053
705.531,3050
706.008,3080
706.487,3062
706.964,3028
707.443,3078
707.92,2999
708.399,3063
708.876,3075
709.353,3026
709.831,3014
710.308,3034
710.787,3031
711.264,3096
711.742,3055
712.219,3038
712.698,3019
713.174,3018
713.651,3059
714.129,3033
714.606,3059
715.084,3061
715.561,3048
716.037,3114
716.516,3060
716.992,3098
717.468,2987
717.947,3046
718.423,3029
718.899,3067
719.378,3077
719.854,3021
720.33,3050
720.808,3086
721.285,3058
721.761,3042
722.239,3023
722.715,3092
723.191,3062
723.667,3076
724.145,3041
724.621,3095
725.097,3033
725.575,3064
726.051,3030
726.527,3053
727.003,3078
727.481,3040
727.956,3047
728.432,3043
728.908,3055
729.384,3000
729.862,3044
730.337,3069
730.813,3071
731.289,3067
731.764,3002
732.242,3062
732.717,3032
733.193,3083
733.668,3033
734.144,3028
734.619,3086
735.097,3097
735.572,3082
736.048,3079
736.523,3076
736.998,3093
737.474,3077
737.949,3094
738.424,3102
738.9,3072
739.377,3092
739.852,3129
740.327,3116
740.802,3089
741.278,3051
741.753,3084
742.228,3068
742.703,3066
743.178,3086
743.653,3116
744.128,3163
744.603,3110
745.078,3135
745.553,3127
746.027,3086
746.502,3055
746.977,3084
747.452,3077
747.927,3116
748.401,3135
748.876,3143
749.351,3098
749.826,3142
750.3,3142
750.775,3099
751.249,3175
751.724,3118
752.199,3101
752.673,3117
753.148,3022
753.62,3112
754.095,3110
754.569,3135
755.043,3063.56
755.518,3121.55
755.992,3098.83
756.466,3178.19
756.941,3137.44
757.415,3086.57
757.887,3163.1
758.362,3131.56
758.836,3146.13
759.31,3103.18
759.784,3158.11
760.258,3139.5
760.73,3129.02
761.204,3115.76
761.678,3140.98
762.152,3109.08
762.626,3102.94
763.098,3071.37
763.572,3115.69
764.046,3134.06
764.52,3131.66
764.994,3113.41
765.466,3095.14
765.94,3107.77
766.414,3130.99
766.887,3099.91
767.359,3091.92
767.833,3120.68
768.307,3136.16
768.778,3134.48
769.252,3110.1
769.726,3132.98
770.199,3144.41
770.671,3103.04
771.144,3115.48
771.618,3091.73
772.089,3106.6
772.563,3102.34
773.036,3129.61
773.508,3113.47
773.981,3144.93
774.455,3148.18
774.926,3141.67
775.399,3150.78
775.873,3153.59
776.344,3151.84
776.817,3144.07
777.288,3172.66
777.762,3162.01
778.235,3204.42
778.706,3207.58
779.179,3210.12
779.65,3280.58
780.123,3331.06
780.596,3425.94
781.068,3522.88
781.541,3586.64
782.012,3634.68
782.484,3602.27
782.955,3576.03
783.428,3550.1
783.899,3492.43
784.372,3442.5
784.843,3459.51
785.316,3451.09
785.789,3439.55
786.259,3516.52
786.732,3529.03
787.203,3535.34
787.674,3619.57
788.146,3706.39
788.617,3756.58
789.089,3849.66
789.56,3900.34
790.033,3932.49
790.503,3913.22
790.976,3881.47
791.446,3799.03
791.919,3708.81
792.389,3612.09
792.86,3564.86
793.332,3456.53
793.802,3401.65
794.275,3323.73
794.745,3293.81
795.215,3295.5
795.688,3264.2
796.158,3202.79
796.63,3147.55
797.1,3158.23
797.571,3141.37
798.043,3124.88
798.513,3145.04
798.983,3145.4
799.455,3120.72
799.925,3072.79
800.395,3068.43
800.867,3082.52
801.337,3051.8
801.807,3056.53
802.279,3068.03
802.749,3059.8
803.219,3033.06
803.254,3030
803.73,3029
804.206,3068
804.682,3051
805.157,3044
805.633,2976
806.109,3046
806.584,3009
807.06,2999
807.536,2924
808.011,2997
808.487,2999
808.962,2998
809.438,3048
809.913,3027
810.389,3018
810.864,2942
811.339,2967
811.815,2992
812.29,2990
812.766,2975
813.241,2954
813.716,3004
814.191,2977
814.667,2981
815.142,2993
815.617,2954
816.092,3010
816.567,2986
817.042,2922
817.517,3007
817.992,2970
818.467,2964
818.94,2972
819.415,2993
819.89,2969
820.365,3000
820.84,2952
821.315,2983
821.79,2950
822.265,2968
822.737,2940
823.212,2933
823.687,2945
824.162,2944
824.636,2946
825.111,2949
825.584,2906
826.058,2990
826.533,2957
827.007,2952
827.482,2936
827.954,2949
828.429,2876
828.903,2914
829.378,2960
829.852,2977
830.325,2948
830.799,3031
831.273,2917
831.748,2977
832.22,2914
832.694,2992
833.169,3027
833.643,3009
834.115,2952
834.589,2922
835.063,2950
835.535,2947
836.01,2965
836.484,2960
836.958,2909
837.43,2942
837.904,2938
838.378,2978
838.85,3009
839.323,3004
839.797,2956
840.269,2995
840.743,2945
841.217,2960
841.689,2954
842.163,2939
842.634,2976
843.108,3013
843.582,2974
844.053,2942
844.527,2948
845.001,3011
845.472,2953
845.946,2966
846.417,2946
846.891,2960
847.362,2929
847.836,2945
848.309,2948
848.781,2941
849.254,2909
849.726,2975
850.199,2949
850.67,2930
851.144,2907
851.615,2980
852.088,2972
852.559,2982
853.033,2984
853.504,2926
853.977,2956
854.448,3029
854.921,3006
855.392,2940
855.865,2968
856.336,3034
856.809,2960
857.28,3003
857.753,2975
858.224,2982
858.697,2922
859.168,2970
859.639,2961
860.112,2949
860.583,2994
861.055,3024
861.526,2998
861.997,2970
862.469,2924
862.94,3018
863.413,3000
863.883,3004
864.354,2986
864.827,2986
865.297,3034
865.77,2987
866.24,3013
866.711,2982
867.183,3013
867.654,3016
868.124,3036
868.597,2982
869.067,3028
869.537,3019
870.008,3026
870.48,3040
870.95,2998
871.42,3006
871.893,3025
872.363,3028
872.833,2992
873.305,2978
873.775,3011
874.245,3047
874.715,3002
875.188,2997
875.658,3005
876.128,3018
876.598,3000
877.068,2987
877.539,3055
878.009,2979
878.479,3058
878.949,2983
879.421,3016
879.891,3025
880.36,3063
880.83,3012
881.3,2994
881.77,3042
882.241,3057
882.711,3023
883.181,2979
883.65,3060
884.12,3053
884.589,3020
885.059,2945
885.53,3055
886,2964
886.469,3019
886.939,3036
887.408,3031
887.878,3006
888.347,3026
888.816,3040
889.286,3072
889.757,3030
890.226,3024
890.695,3039
891.165,3042
891.634,3030
892.103,3018
892.572,2999
893.041,3025
893.51,2955
893.98,3047
894.449,3000
894.918,3053
895.387,2983
895.856,3032
896.325,3052
896.794,3003
897.262,3055
897.731,3038
898.2,3042
898.669,3007
899.138,3062
899.607,3015
900.075,3046
900.544,3049
901.013,3006
901.481,2974
901.95,3038
902.419,3007
902.885,2928
903.354,2992
903.823,3029
904.291,3024
904.76,3032
905.228,3023
905.697,2992
906.165,3025
906.633,3008
907.1,2968
907.568,2990
908.036,3045
908.505,3001
908.973,2970
909.441,3008
909.91,3018
910.376,3028
910.844,2995
911.312,2976
911.78,2986
912.249,2967
912.717,2974
913.183,3014
913.651,2945
914.119,2954
914.587,3052
915.053,3001
915.521,2999
915.989,2957
916.457,3043
916.924,2989
917.39,3039
917.858,3043
918.326,2984
918.792,3001
919.26,3054
919.727,3013
920.195,2992
920.661,3032
921.128,3016
921.596,2959
922.062,2958
922.529,3008
922.997,2977
923.464,3017
923.93,3043
924.397,3002
924.865,3002
925.33,2973
925.798,3034
926.263,2959
926.731,3017
927.198,2980
927.663,3015
928.13,3000
928.598,3064
929.063,2989
929.53,2971
929.996,2970
930.463,2964
930.93,2992
931.395,3005
931.862,3001
932.327,2946
932.794,3035
933.259,3042
933.726,3058
934.193,3027
934.658,2957
935.125,3016
935.59,3024
936.057,3059
936.522,2996
936.989,3023
937.454,3022
937.92,3000
938.385,3022
938.852,3013
939.317,2986
939.783,3043
940.248,3002
940.715,3019
941.179,3016
941.646,3048
942.111,3033
942.575,3048
943.042,3013
943.506,3084
943.973,2990
944.437,3017
944.904,3027
945.368,3057
945.832,3066
946.299,3099
946.763,3007
947.229,3066
947.694,3006
948.158,3045
948.624,3069
949.089,3032
949.553,3037
950.019,3063
950.483,3054
950.949,3045
951.413,3108
951.877,3016
952.343,3034
952.807,3067
953.271,3089
953.735,3046
954.201,3048
954.665,3008
955.129,3018
955.595,3060
956.059,3037
956.523,3018
956.987,3008
957.453,3021
957.916,3062
958.38,3029
958.846,3083
959.309,3048
959.773,3067
960.237,3076
960.701,3058
961.166,3093
961.63,3072
962.093,3078
962.557,3088
963.022,3050
963.486,3093
963.949,3034
964.413,3149
964.876,3140
965.339,3076
965.805,3133
966.268,3180
966.732,3141
967.195,3164
967.658,3165
968.121,3186
968.585,3194
969.05,3186
969.513,3182
969.976,3239
970.439,3218
970.902,3234
971.365,3246
971.828,3116
972.292,3216
972.755,3240
973.218,3204
973.682,3123
974.145,3121
974.608,3125
975.071,3105
975.534,3084
975.997,3050
976.46,3106
976.923,3115
977.385,3076
977.848,3070
978.311,3070
978.773,3155
979.236,3084
979.699,2984
980.161,3056
980.624,3083
981.087,3088
981.549,3133
982.012,3088
982.474,3092
982.937,3116
983.399,3106
983.862,3041
984.324,3108
984.785,3098
985.247,3064
985.709,3085
986.172,3089
986.634,3167
987.096,3144
987.558,3103
988.021,3112
988.483,3108
988.945,3091
989.405,3155
989.867,3152
990.329,3096
990.792,3175
991.254,3056
991.716,3112
992.178,3123
992.638,3141
993.1,3095
993.562,3088
994.023,3062
994.485,3085
994.947,3096
995.407,3108
995.869,3080
996.331,3086
996.793,3022
997.252,3066
997.714,3079
998.176,3098
998.637,3070
999.099,3070
999.559,3118
1000.02,3068
1000.48,3058
1000.94,3088
1001.4,3059
1001.86,3092
1002.33,3096
1002.79,3073
1003.25,3014
1003.71,3112
1004.17,3084
1004.63,3113
1005.09,3193
1005.55,3097
1006.01,3119
1006.47,3129
1006.93,3087
1007.39,3129
1007.85,3092
1008.31,3132
1008.77,3080
1009.24,3118
1009.7,3056
1010.16,3114
1010.62,3066
1011.08,3108
1011.54,3068
1012,3084
1012.46,3127
1012.92,3053
1013.38,3072
1013.84,3072
1014.3,3072
1014.76,3052
1015.22,3013
1015.68,3064
1016.14,3062
1016.6,3046
1017.06,3080
1017.52,3087
1017.98,3024
1018.44,3028
1018.9,3086
1019.36,3046
1019.82,3062
1020.27,3028
1020.73,3007
1021.19,3057
1021.65,3062
1022.11,3106
1022.57,3064
1023.03,3016
1023.49,3081
1023.95,3044
1024.41,3065
1024.87,2996
1025.33,3071
1025.79,3049
1026.25,3048
1026.7,3024
1027.16,3070
1027.62,3101
1028.08,3081
1028.54,3047
1029,3028
1029.46,3041
1029.92,3051
1030.38,3009
1030.84,3032
1031.29,3086
1031.75,3021
1032.21,3044
1032.67,2997
1033.13,3079
1033.59,3024
1034.05,3076
1034.5,2958
1034.96,3026
1035.42,3056
1035.88,2989
1036.34,3034
1036.8,3008
1037.25,3046
1037.71,3034
1038.17,3029
1038.63,3014
1039.09,3021
1039.54,3050
1040,3042
1040.46,3038
1040.92,3014
1041.38,2980
1041.84,3013
1042.29,2969
1042.75,3025
1043.21,3012
1043.67,3020
1044.12,3051
1044.58,3040
1045.04,3073
1045.5,3064
1045.95,3029
1046.41,3010
1046.87,3058
1047.33,2962
1047.79,3068
1048.24,3035
1048.7,3008
1049.16,3047
1049.61,3027
1050.07,3020
1050.53,3094
1050.99,3077
1051.44,3020
1051.9,3065
1052.36,3031
1052.81,3014
1053.27,3037
1053.73,3036
1054.19,3072
1054.64,3087
1055.1,3020
1055.56,3098
1056.01,3070
1056.47,3063
1056.93,3059
1057.38,3063
1057.84,3063
1058.3,3030
1058.75,3030
1059.21,3084
1059.67,3037
1060.12,3089
1060.58,3073
1061.04,3110
1061.49,3069
1061.95,3062
1062.41,3078
1062.86,3051
1063.32,3104
1063.77,3026
1064.23,3040
1064.69,3039
1065.14,3114
1065.6,3028
1066.06,3076
1066.51,3041
1066.97,3055
1067.42,3129
1067.88,3075
1068.34,3078
1068.79,3123
1069.25,3038
1069.7,3119
1070.16,3005
1070.62,3052
1071.07,3064
1071.53,3107
1071.98,3112
1072.44,3064
1072.89,3062
1073.35,3107
1073.81,3062
1074.26,3082
1074.71,3072
1075.17,3134
1075.63,3116
1076.08,3060
1076.54,3070
1076.99,3099
1077.45,3102
1077.9,3063
1078.36,3068
1078.81,3064
1079.27,3088
1079.72,3114
1080.18,3120
1080.63,3121
1081.09,3105
1081.54,3075
1082,3028
1082.45,3077
1082.91,2991
1083.36,3156
1083.82,3088
1084.27,3073
1084.73,3110
1085.18,3134
1085.64,3050
1086.09,3087
1086.54,3078
1087,3133
1087.45,3088
1087.91,3105
1088.36,3151
1088.82,3101
1089.27,3132
1089.72,3094
1090.18,3127
1090.63,3109
1091.09,3148
1091.54,3115
1092,3137
1092.45,3120
1092.9,3113
1093.36,3163
1093.81,3092
1094.27,3100
1094.72,3149
1095.17,3128
1095.63,3139
1096.08,3173
1096.54,3112
1096.99,3195
1097.44,3159
1097.9,3200
1098.35,3146
1098.8,3181
1099.26,3156
1099.71,3170
1100.17,3211
1100.62,3178
1101.07,3259
1101.52,3191
1101.98,3225
1102.43,3199
1102.88,3250
1103.34,3262
1103.79,3262
1104.24,3243
1104.7,3263
1105.15,3288
1105.6,3256
1106.06,3303
1106.51,3289
1106.96,3282
1107.41,3268
1107.87,3245
1108.32,3238
1108.78,3302
1109.23,3288
1109.68,3269
1110.13,3239
1110.59,3210
1111.04,3214
1111.49,3204
1111.94,3158
1112.4,3179
1112.85,3162
1113.3,3202
1113.75,3155
1114.21,3222
1114.66,3234
1115.11,3176
1115.56,3138
1116.02,3134
1116.47,3170
1116.92,3188
1117.37,3132
1117.83,3107
1118.28,3168
1118.73,3114
1119.18,3128
1119.63,3107
1120.09,3120
1120.54,3130
1120.99,3167
1121.44,3140
1121.89,3096
1122.34,3140
1122.8,3133
1123.25,3133
1123.7,3138
1124.15,3106
1124.6,3139
1125.05,3123
1125.51,3152
1125.96,3106
1126.41,3135
1126.86,3134
1127.31,3119
1127.76,3131
1128.22,3151
1128.67,3145
1129.12,3162
1129.57,3152
1130.02,3157
1130.47,3138
1130.92,3148
1131.37,3138
1131.82,3096
1132.27,3111
1132.73,3120
1133.18,3131
1133.63,3141
1134.08,3129
1134.53,3155
1134.98,3121
1135.43,3108
1135.88,3139
1136.33,3095
1136.78,3120
1137.23,3154
1137.68,3140
1138.14,3130
1138.59,3144
1139.04,3122
1139.49,3114
1139.94,3120
1140.39,3124
1140.84,3156
1141.29,3093
1141.74,3116
1142.19,3174
1142.64,3168
1143.09,3147
1143.54,3157
1143.99,3117
1144.44,3149
1144.89,3191
1145.34,3071
1145.79,3088
1146.24,3078
1146.69,3133
1147.14,3198
1147.59,3131
1148.04,3154
1148.49,3199
1148.94,3127
1149.39,3144
1149.84,3141
1150.29,3156
1150.74,3136
1151.19,3145
1151.64,3134
1152.09,3146
1152.54,3148
1152.99,3084
1153.44,3125
1153.89,3139
1154.34,3141
1154.78,3138
1155.23,3112
1155.68,3105
1156.13,3125
1156.58,3091
1157.03,3166
1157.48,3182
1157.93,3158
1158.38,3154
1158.83,3131
1159.28,3110
1159.72,3112
1160.17,3185
1160.62,3165
1161.07,3194
1161.52,3152
1161.97,3131
1162.42,3174
1162.87,3119
1163.31,3129
1163.76,3154
1164.21,3167
1164.66,3140
1165.11,3124
1165.56,3149
1166.01,3198
1166.46,3114
1166.9,3109
1167.35,3192
1167.8,3163
1168.25,3155
1168.7,3122
1169.14,3153
1169.59,3145
1170.04,3178
1170.49,3150
1170.94,3091
1171.39,3159
1171.83,3117
1172.28,3086
1172.73,3160
1173.18,3171
1173.63,3166
1174.07,3144
1174.52,3134
1174.97,3167
1175.42,3178
1175.86,3126
1176.31,3166
1176.76,3168
1177.21,3107
1177.66,3174
1178.1,3188
1178.55,3136
1179,3190
1179.45,3162
1179.89,3176
1180.34,3206
1180.79,3187
1181.23,3225
1181.68,3168
1182.13,3164
1182.58,3209
1183.02,3150.46
1183.47,3162
1183.92,3187.17
1184.37,3161.53
1184.81,3171.96
1185.26,3195.09
1185.71,3164.47
1186.15,3169.02
1186.6,3162.36
1187.05,3168.15
1187.49,3187.64
1187.94,3185.62
1188.39,3179.13
1188.83,3184.94
1189.28,3118.97
1189.73,3150.94
1190.17,3107.72
1190.62,3165.79
1191.07,3182.35
1191.51,3083.43
1191.96,3205.46
1192.41,3141.8
1192.85,3192.97
1193.3,3184.85
1193.75,3187.94
1194.19,3124.7
1194.64,3174.55
1195.09,3138.47
1195.53,3149.59
1195.98,3135.36
1196.42,3191.49
1196.87,3124.01
1197.32,3189.31
1197.76,3134.09
1198.21,3156.09
1198.65,3110.11
1199.1,3150.12
1199.55,3159.58
1199.99,3188.17
1200.44,3141
1200.88,3183.82
1201.33,3158.32
1201.78,3164.25
1202.22,3103.43
1202.67,3124.21
1203.11,3137.83
1203.56,3121.48
1204,3163.25
1204.45,3143.76
1204.9,3146.88
1205.34,3109.53
1205.79,3119.47
1206.23,3134.64
1206.68,3157.32
1207.12,3129.22
1207.57,3110.16
1208.01,3148.64
1208.46,3141.89
1208.9,3106.86
1209.35,3109.33
1209.79,3121.38
1210.24,3075.58
1210.68,3132.19
1211.13,3135.24
1211.57,3116.65
1212.02,3117.3
1212.46,3117.46
1212.91,3111.5
1213.35,3127.53
1213.8,3118.02
1214.24,3095.29
1214.69,3100.21
1215.13,3121.7
1215.58,3111.84
1216.02,3118.97
1216.47,3099.35
1216.91,3104.56
1217.36,3122.67
1217.8,3121.02
1218.25,3103.89
1218.69,3074.06
1219.13,3098.43
1219.58,3136.22
1220.02,3077.07
1220.47,3058.18
1220.91,3102.1
1221.36,3127.16
1221.8,3142.1
1222.24,3131.78
1222.69,3116.78
1223.13,3107.74
1223.58,3130.11
1224.02,3110.41
1224.46,3093.62
1224.91,3134.75
1225.35,3129.65
1225.8,3126.74
1226.24,3097.57
1226.68,3102.87
1227.13,3150.98
1227.52,3101
1227.97,3068
1228.42,3129
1228.87,3089
1229.31,3118
1229.76,3136
1230.21,3087
1230.66,3142
1231.11,3154
1231.56,3116
1232.01,3156
1232.46,3138
1232.91,3181
1233.35,3150
1233.8,3147
1234.25,3187
1234.7,3158
1235.15,3236
1235.6,3196
1236.05,3239
1236.49,3168
1236.94,3155
1237.39,3206
1237.84,3212
1238.29,3218
1238.74,3200
1239.18,3261
1239.63,3243
1240.08,3248
1240.53,3325
1240.98,3289
1241.43,3336
1241.87,3318
1242.32,3289
1242.77,3250
1243.22,3355
1243.67,3351
1244.11,3304
1244.56,3354
1245.01,3410
1245.46,3390
1245.91,3414
1246.35,3408
1246.8,3412
1247.25,3405
1247.7,3362
1248.14,3488
1248.59,3437
1249.04,3394
1249.49,3448
1249.93,3424
1250.38,3394
1250.83,3362
1251.28,3377
1251.72,3413
1252.17,3364
1252.62,3323
1253.07,3347
1253.51,3308
1253.96,3273
1254.41,3202
1254.86,3261
1255.3,3227
1255.75,3210
1256.2,3239
1256.64,3221
1257.09,3180
1257.54,3150
1257.98,3138
1258.43,3174
1258.88,3170
1259.32,3187
1259.77,3178
1260.22,3169
1260.66,3122
1261.11,3133
1261.56,3078
1262.01,3157
1262.45,3147
1262.9,3148
1263.34,3161
1263.79,3162
1264.24,3177
1264.68,3139
1265.13,3140
1265.58,3182
1266.02,3203
1266.47,3175
1266.92,3176
1267.36,3197
1267.81,3254
1268.25,3228
1268.7,3262
1269.15,3301
1269.59,3375
1270.04,3512
1270.48,3563
1270.93,3644
1271.38,3775
1271.82,3913
1272.27,4050
1272.71,4206
1273.16,4283
1273.6,4394
1274.05,4375
1274.5,4329
1274.94,4240
1275.39,4034
1275.83,3907
1276.28,3796
1276.72,3648
1277.17,3557
1277.61,3546
1278.06,3417
1278.51,3360
1278.95,3366
1279.4,3238
1279.84,3262
1280.29,3227
1280.73,3212
1281.18,3209
1281.62,3199
1282.07,3146
1282.51,3176
1282.96,3164
1283.4,3172
1283.85,3114
1284.29,3091
1284.74,3118
1285.18,3143
1285.63,3130
1286.07,3094
1286.52,3089
1286.96,3134
1287.41,3127
1287.85,3098
1288.3,3151
1288.74,3076
1289.19,3115
1289.63,3086
1290.07,3075
1290.52,3053
1290.96,3102
1291.41,3057
1291.85,3135
1292.3,3104
1292.74,3069
1293.19,3103
1293.63,3122
1294.07,3062
1294.52,3084
1294.96,3069
1295.41,3111
1295.85,3076
1296.3,3080
1296.74,3080
1297.18,3055
1297.63,3060
1298.07,3034
1298.51,3118
1298.96,3092
1299.4,3062
1299.85,3102
1300.29,3074
1300.73,3112
1301.18,3088
1301.62,3098
1302.06,3078
1302.51,3101
1302.95,3083
1303.39,3072
1303.84,3094
1304.28,3085
1304.72,3039
1305.17,3084
1305.61,3092
1306.05,3115
1306.5,3063
1306.94,3109
1307.38,3071
1307.83,3072
1308.27,3094
1308.71,3116
1309.16,3097
1309.6,3165
1310.04,3132
1310.49,3153
1310.93,3113
1311.37,3093
1311.82,3086
1312.26,3149
1312.7,3110
1313.14,3076
1313.59,3084
1314.03,3111
1314.47,3179
1314.92,3090
1315.36,3066
1315.8,3172
1316.24,3064
1316.69,3148
1317.13,3106
1317.57,3074
1318.01,3112
1318.46,3090
1318.9,3108
1319.34,3046
1319.78,3086
1320.22,3109
1320.67,3117
1321.11,3044
1321.55,3059
1321.99,3097
1322.44,3096
1322.88,3067
1323.32,3098
1323.76,3110
1324.2,3052
1324.64,3101
1325.09,3122
1325.53,3038
1325.97,3065
1326.41,3081
1326.85,3088
1327.3,3066
1327.74,3103
1328.18,3101
1328.62,3050
1329.06,3080
1329.51,3099
1329.95,3102
1330.39,3060
1330.83,3080
1331.27,3064
1331.71,3149
1332.15,3048
1332.6,3116
1333.04,3079
1333.48,3078
1333.92,3081
1334.36,3089
1334.8,3077
1335.24,3074
1335.68,3056
1336.12,3076
1336.57,3043
1337.01,3077
1337.45,3040
1337.89,3032
1338.33,3045
1338.77,3069
1339.21,3127
1339.65,3030
1340.09,3050
1340.53,3068
1340.98,3058
1341.42,3102
1341.86,3029
1342.3,3081
1342.74,3068
1343.18,3052
1343.62,3076
1344.06,3002
1344.5,3050
1344.94,3063
1345.38,3065
1345.82,3045
1346.26,3095
1346.7,3054
1347.14,3098
1347.58,3084
1348.02,3101
1348.46,3112
1348.9,3084
1349.34,3083
1349.78,3036
1350.22,3146
1350.66,3111
1351.1,3074
1351.54,3121
1351.98,3070
1352.42,3115
1352.86,3036
1353.3,3042
1353.74,3070
1354.18,3115
1354.62,3113
1355.06,3129
1355.5,3134
1355.94,3106
1356.38,3096
1356.82,3082
1357.26,3168
1357.7,3183
1358.14,3197
1358.58,3214
1359.02,3211
1359.46,3258
1359.9,3205
1360.33,3203
1360.77,3163
1361.21,3155
1361.65,3171
1362.09,3159
1362.53,3192
1362.97,3148
1363.41,3127
1363.85,3129
1364.29,3111
1364.73,3084
1365.16,3148
1365.6,3141
1366.04,3031
1366.48,3032
1366.92,3095
1367.36,3066
1367.8,3063
1368.24,3055
1368.68,3062
1369.11,3064
1369.55,3139
1369.99,3100
1370.43,3065
1370.87,3090
1371.31,3048
1371.75,3055
1372.18,3020
1372.62,3029
1373.06,3030
1373.5,3011
1373.94,3072
1374.37,3080
1374.81,3031
1375.25,3052
1375.69,3053
1376.13,2987
1376.57,3046
1377,2989
1377.44,3012
1377.88,3079
1378.32,3014
1378.76,3003
1379.19,3049
1379.63,2996
1380.07,3026
1380.51,3034
1380.94,2962
1381.38,2992
1381.82,3020
1382.26,2990
1382.7,2992
1383.13,2904
1383.57,2992
1384.01,3019
1384.44,2972
1384.88,3062
1385.32,3000
1385.76,3000
1386.2,3009
1386.63,3000
1387.07,3000
1387.51,3006
1387.94,3008
1388.38,3013
1388.82,3005
1389.26,3026
1389.69,3048
1390.13,3000
1390.57,3032
1391,2942
1391.44,3025
1391.88,3026
1392.31,2970
1392.75,3035
1393.19,3000
1393.62,3049
1394.06,3085
1394.5,3006
1394.94,3058
1395.37,3040
1395.81,3039
1396.24,3020
1396.68,2970
1397.12,3072
1397.56,3066
1397.99,3045
1398.43,3039
1398.86,3039
1399.3,3024
1399.74,3031
1400.17,3026
1400.61,3006
1401.05,3049
1401.48,3017
1401.92,2994
1402.35,3048
1402.79,2986
1403.23,2966
1403.66,3022
1404.1,2994
1404.53,3000
1404.97,2972
1405.41,3052
1405.84,3019
1406.28,2998
1406.71,2978
1407.15,3034
1407.59,3028
1408.02,3025
1408.46,3038
1408.89,2996
1409.33,2992
1409.76,3028
1410.2,3053
1410.64,3017
1411.07,3037
1411.51,2997
1411.94,3016
1412.38,3026
1412.81,3028
1413.25,3049
1413.68,2996
1414.12,3087
1414.55,2998
1414.99,3006
1415.42,3082
1415.86,3002
1416.29,3036
1416.73,3036
1417.16,3002
1417.6,3020
1418.03,3066
1418.47,3008
1418.9,3062
1419.34,3070
1419.77,3021
1420.21,3046
1420.64,2980
1421.08,3044
1421.51,3034
1421.95,3004
1422.38,3078
1422.82,3054
1423.25,3047
1423.69,2966
1424.12,3086
1424.56,3018
1424.99,3039
1425.42,2998
1425.86,3030
1426.29,2995
1426.73,2986
1427.16,3020
1427.59,3006
1428.03,3030
1428.46,3052
1428.9,3056
1429.33,3056
1429.77,3034
1430.2,3046
1430.63,3010
1431.07,3039
1431.5,3031
1431.94,3060
1432.37,3066
1432.8,3023
1433.24,2999
1433.67,3081
1434.1,3089
1434.54,3074
1434.97,3008
1435.41,3058
1435.84,3021
1436.27,3115
1436.71,3070
1437.14,3087
1437.57,3024
1438.01,3094
1438.44,3090
1438.88,3056
1439.31,3045
1439.74,3072
1440.17,3057
1440.61,3062
1441.04,3081
1441.47,3097
1441.91,3052
1442.34,3145
1442.77,3063
1443.21,3030
1443.64,3037
1444.07,3056
1444.51,3058
1444.94,3068
1445.37,3051
1445.8,3086
1446.24,3106
1446.67,3053
1447.1,3129
1447.54,3082
1447.97,3090
1448.4,3078
1448.83,3093
1449.27,3070
1449.7,3100
1450.13,3147
1450.57,3072
1451,3079
1451.43,3232
1451.86,3127.67
1452.3,3146.22
1452.73,3168.63
1453.16,3147.51
1453.59,3154.12
1454.02,3156.75
1454.46,3152.59
1454.89,3158.69
1455.32,3152
1455.75,3178
1456.18,3130
1456.62,3099
1457.05,3158
1457.48,3167
1457.91,3130
1458.34,3190
1458.78,3173
1459.21,3207
1459.64,3126
1460.07,3123
1460.5,3124
1460.94,3106
1461.37,3095
1461.8,3103
1462.23,3112
1462.66,3074
1463.09,3120
1463.53,3135
1463.96,3122
1464.39,3110
1464.82,3093
1465.25,3139
1465.68,3109
1466.12,3080
1466.55,3160
1466.98,3122
1467.41,3078
1467.84,3105
1468.27,3146
1468.7,3105
1469.13,3059
1469.56,3097
1470,3067
1470.43,3080
1470.86,2988
1471.29,3100
1471.72,3063
1472.15,3070
1472.58,3085
1473.01,3094
1473.44,3058
1473.87,3090
1474.31,3082
1474.74,3102
1475.17,3063
1475.6,3098
1476.03,3046
1476.46,3113
1476.89,3058
1477.32,3075
1477.75,3077
1478.18,3063
1478.61,3032
1479.04,3068
1479.47,3058
1479.9,3043
1480.33,3098
1480.76,3087
1481.19,3060
1481.62,3090
1482.05,3008
1482.48,3069
1482.91,3082
1483.34,3106
1483.77,3067
1484.2,3060
1484.63,3098
1485.06,3044
1485.49,3094
1485.92,3074
1486.35,3094
1486.78,3147
1487.21,3064
1487.64,3100
1488.07,3062
1488.5,3117
1488.93,3052
1489.36,3064
1489.79,3098
1490.22,3082
1490.65,3054
1491.08,3024
1491.51,3098
1491.94,3048
1492.37,3071
1492.8,3105
1493.23,3092
1493.66,3027
1494.09,3100
1494.51,3046
1494.94,3090
1495.37,3084
1495.8,3038
1496.23,3109
1496.66,3077
1497.09,3053
1497.52,3053
1497.95,3102
1498.38,3085
1498.81,3070
1499.23,3027
