Raman Shift (1/cm),Intensity (Counts)
302.468,1185
302.977,1183
303.486,1192
303.995,1200
304.503,1170
305.012,1189
305.521,1184
306.03,1194
306.538,1184
307.047,1186
307.556,1210
308.064,1183
308.573,1199
309.082,1190
309.59,1202
310.097,1187
310.605,1184
311.114,1196
311.622,1188
312.13,1178
312.639,1195
313.147,1209
313.655,1186
314.164,1198
314.672,1199
315.18,1202
315.686,1188
316.195,1205
316.703,1190
317.211,1192
317.719,1202
318.227,1174
318.735,1198
319.241,1196
319.749,1200
320.257,1171
320.765,1190
321.273,1197
321.781,1194
322.287,1192
322.794,1176
323.302,1204
323.81,1195
324.318,1193
324.823,1190
325.331,1188
325.839,1193
326.346,1207
326.852,1189
327.359,1190
327.867,1182
328.374,1180
328.88,1196
329.387,1200
329.895,1188
330.402,1192
330.907,1206
331.415,1185
331.922,1201
332.429,1189
332.935,1188
333.442,1199
333.949,1170
334.454,1192
334.961,1194
335.468,1196
335.973,1201
336.481,1194
336.988,1198
337.493,1166
338,1201
338.506,1191
339.011,1191
339.518,1192
340.023,1203
340.53,1192
341.037,1193
341.541,1201
342.048,1206
342.555,1213
343.06,1188
343.566,1218
344.071,1202
344.577,1216
345.082,1186
345.589,1191
346.095,1189
346.6,1204
347.106,1200
347.61,1206
348.117,1194
348.621,1192
349.128,1201
349.632,1197
350.138,1190
350.642,1204
351.149,1200
351.653,1190
352.159,1188
352.663,1205
353.169,1209
353.673,1176
354.179,1200
354.683,1178
355.189,1190
355.693,1202
356.199,1211
356.703,1197
357.209,1168
357.713,1182
358.219,1184
358.723,1214
359.226,1179
359.732,1194
360.236,1195
360.742,1210
361.245,1199
361.751,1204
362.255,1211
362.758,1221
363.264,1189
363.767,1192
364.271,1175
364.776,1196
365.28,1197
365.785,1200
366.289,1200
366.792,1192
367.297,1211
367.801,1201
368.304,1202
368.809,1182
369.312,1202
369.815,1204
370.321,1214
370.824,1182
371.327,1205
371.83,1186
372.335,1192
372.838,1210
373.341,1214
373.846,1214
374.349,1190
374.852,1210
375.355,1204
375.86,1197
376.362,1204
376.865,1194
377.368,1223
377.873,1201
378.376,1207
378.878,1182
379.381,1190
379.883,1184
380.388,1203
380.891,1206
381.393,1195
381.896,1201
382.398,1184
382.903,1200
383.405,1201
383.908,1203
384.41,1214
384.912,1189
385.415,1200
385.919,1209
386.421,1197
386.923,1222
387.426,1212
387.928,1202
388.43,1212
388.932,1204
389.434,1204
389.938,1190
390.44,1198
390.942,1210
391.444,1211
391.946,1215
392.448,1215
392.95,1201
393.452,1205
393.954,1192
394.456,1221
394.958,1219
395.459,1221
395.961,1221
396.463,1210
396.965,1211
397.466,1214
397.968,1218
398.469,1206
398.971,1212
399.473,1220
399.974,1231
400.476,1204
400.977,1234
401.479,1220
401.98,1227
402.481,1212
402.983,1222
403.484,1213
403.985,1230
404.487,1204
404.988,1218
405.489,1220
405.99,1216
406.491,1206
406.993,1194
407.494,1216
407.995,1221
408.496,1214
408.995,1217
409.496,1214
409.997,1208
410.498,1194
410.999,1203
411.5,1212
412,1192
412.501,1210
413.002,1226
413.501,1222
414.002,1222
414.502,1194
415.003,1206
415.504,1232
416.004,1191
416.503,1227
417.004,1215
417.504,1216
418.005,1202
418.505,1214
419.004,1213
419.504,1199
420.004,1198
420.505,1204
421.003,1212
421.504,1207
422.004,1202
422.504,1213
423.004,1206
423.503,1222
424.003,1202
424.503,1192
425.001,1205
425.501,1216
426.001,1192
426.501,1202
426.999,1178
427.499,1190
427.999,1196
428.497,1213
428.997,1220
429.497,1203
429.995,1216
430.495,1216
430.995,1220
431.493,1214
431.992,1193
432.492,1200
432.99,1203
433.489,1212
433.989,1215
434.487,1216
434.986,1217
435.486,1202
435.983,1216
436.483,1210
436.98,1194
437.48,1206
437.977,1232
438.477,1215
438.976,1206
439.473,1204
439.973,1206
440.47,1201
440.969,1219
441.467,1217
441.966,1220
442.465,1236
442.962,1226
443.461,1207
443.958,1200
444.457,1200
444.954,1197
445.453,1206
445.95,1214
446.449,1215
446.946,1208
447.445,1216
447.942,1205
448.441,1208
448.938,1189
449.437,1188
449.933,1208
450.43,1218
450.929,1180
451.426,1206
451.924,1215
452.421,1196
452.92,1226
453.416,1214
453.913,1206
454.411,1219
454.908,1204
455.406,1225
455.903,1206
456.399,1225
456.897,1204
457.394,1227
457.892,1206
458.388,1220
458.885,1177
459.383,1237
459.879,1191
460.375,1209
460.874,1222
461.37,1208
461.866,1230
462.364,1234
462.86,1202
463.356,1213
463.854,1226
464.35,1216
464.846,1222
465.342,1204
465.84,1203
466.336,1225
466.832,1211
467.329,1221
467.825,1217
468.321,1228
468.817,1226
469.314,1225
469.81,1256
470.306,1235.67
470.801,1238.89
471.297,1243.52
471.795,1239.36
472.29,1240.59
472.786,1241.16
473.281,1240.37
473.779,1240.7
474.274,1243.06
474.769,1239.63
475.265,1250
475.76,1224
476.256,1229
476.753,1219
477.248,1220
477.743,1209
478.239,1225
478.734,1209
479.229,1202
479.724,1229
480.221,1223
480.716,1218
481.211,1220
481.706,1216
482.201,1217
482.696,1206
483.191,1226
483.686,1216
484.181,1216
484.676,1218
485.171,1206
485.668,1212
486.163,1210
486.657,1220
487.152,1204
487.647,1213
488.141,1222
488.636,1208
489.131,1224
489.625,1221
490.12,1210
490.614,1205
491.109,1221
491.603,1192
492.098,1233
492.592,1219
493.087,1201
493.581,1213
494.076,1220
494.57,1212
495.064,1210
495.559,1211
496.053,1230
496.547,1204
497.041,1230
497.533,1234
498.027,1228
498.522,1222
499.016,1222
499.51,1197
500.004,1213
500.498,1220
500.992,1230
501.486,1239
501.98,1203
502.472,1206
502.965,1216
503.459,1210
503.953,1213
504.447,1206
504.941,1211
505.434,1229
505.926,1221
506.42,1216
506.913,1229
507.407,1227
507.901,1225
508.394,1218
508.886,1212
509.379,1252
509.873,1240
510.366,1226
510.86,1218
511.351,1215
511.845,1218
512.338,1212
512.831,1218
513.323,1221
513.816,1222
514.309,1208
514.802,1215
515.294,1215
515.787,1208
516.28,1227
516.771,1214
517.264,1222
517.757,1236
518.25,1220
518.741,1210
519.234,1216
519.727,1220
520.218,1205
520.711,1212
521.204,1204
521.695,1211
522.188,1216
522.681,1215
523.171,1214
523.664,1215
524.157,1226
524.647,1220
525.14,1217
525.631,1213
526.123,1214
526.616,1223
527.107,1243
527.599,1209
528.09,1220
528.582,1214
529.075,1236
529.565,1206
530.057,1245
530.548,1224
531.04,1229
531.53,1263
532.023,1236
532.515,1241
533.005,1230
533.497,1238
533.988,1240
534.48,1259
534.97,1263
535.462,1241
535.952,1248
536.444,1251
536.934,1244
537.426,1241
537.916,1236
538.408,1250
538.898,1252
539.388,1236
539.88,1230
540.37,1248
540.862,1243
541.351,1222
541.843,1220
542.333,1231
542.825,1252
543.314,1236
543.804,1267
544.296,1248
544.785,1273
545.277,1269
545.766,1282
546.256,1305
546.747,1285
547.237,1272
547.726,1290
548.218,1257
548.707,1250
549.198,1258
549.688,1236
550.177,1246
550.668,1254
551.158,1237
551.647,1234
552.136,1241
552.627,1230
553.116,1236
553.606,1249
554.097,1227
554.586,1231
555.075,1226
555.566,1224
556.055,1224
556.544,1210
557.033,1234
557.524,1224
558.013,1227
558.501,1230
558.99,1236
559.481,1234
559.97,1219
560.459,1234
560.947,1229
561.436,1227
561.927,1194
562.415,1231
562.904,1223
563.393,1238
563.881,1228
564.372,1230
564.86,1250
565.349,1224
565.837,1221
566.326,1224
566.814,1226
567.304,1243
567.793,1241
568.281,1256
568.769,1224
569.258,1202
569.746,1210
570.234,1216
570.722,1237
571.211,1228
571.701,1216
572.189,1218
572.677,1232
573.165,1221
573.653,1228
574.141,1211
574.629,1229
575.117,1223
575.605,1235
576.093,1206
576.581,1232
577.069,1231
577.557,1230
578.044,1206
578.532,1229
579.02,1217
579.508,1234
579.995,1221
580.483,1233
580.971,1224
581.458,1239
581.946,1231
582.433,1208
582.921,1232
583.409,1227
583.896,1227
584.383,1238
584.871,1217
585.358,1226
585.846,1236
586.333,1232
586.82,1244
587.306,1222
587.793,1229
588.28,1229
588.768,1242
589.255,1238
589.742,1223
590.229,1240
590.716,1210
591.203,1223
591.688,1224
592.175,1226
592.662,1231
593.149,1242
593.636,1230
594.123,1226
594.608,1244
595.095,1251
595.582,1261
596.069,1242
596.556,1277
597.043,1279
597.527,1292
598.014,1274
598.501,1278
598.987,1262
599.472,1254
599.959,1222
600.445,1259
600.932,1230
601.416,1217
601.903,1248
602.389,1226
602.876,1218
603.36,1224
603.847,1238
604.333,1237
604.82,1225
605.304,1206
605.79,1224
606.277,1224
606.761,1221
607.247,1223
607.733,1224
608.217,1214
608.704,1236
609.19,1238
609.674,1207
610.16,1229
610.646,1226
611.13,1241
611.616,1209
612.1,1241
612.586,1220
613.072,1222
613.556,1214
614.042,1226
614.526,1231
615.011,1224
615.497,1223
615.981,1207
616.467,1210
616.95,1241
617.436,1236
617.92,1214
618.405,1228
618.891,1220
619.375,1212
619.86,1219
620.344,1247
620.829,1228
621.313,1219
621.798,1224
622.282,1209
622.767,1211
623.25,1225
623.736,1244
624.219,1214
624.704,1222
625.188,1227
625.673,1216
626.156,1220
626.639,1229
627.125,1216
627.608,1233
628.093,1234
628.576,1220
629.061,1225
629.544,1246
630.027,1228
630.512,1234
630.995,1218
631.48,1224
631.963,1222
632.446,1206
632.931,1212
633.414,1213
633.898,1210
634.381,1226
634.864,1246
635.349,1212
635.831,1226
636.314,1241
636.799,1240
637.281,1218
637.764,1224
638.249,1216
638.731,1233
639.214,1227
639.696,1200
640.181,1234
640.663,1216
641.146,1215
641.63,1221
642.112,1215
642.595,1208
643.077,1227
643.561,1228
644.044,1222
644.526,1248
645.008,1243
645.492,1230
645.974,1218
646.456,1238
646.939,1224
647.421,1228
647.905,1234
648.387,1210
648.869,1209
649.351,1210
649.833,1233
650.317,1226
650.799,1223
651.281,1236
651.762,1236
652.244,1220
652.726,1242
653.208,1226
653.692,1220
654.173,1222
654.655,1230
655.137,1222
655.618,1243
656.1,1251
656.582,1230
657.063,1240
657.545,1232
658.028,1231
658.51,1239
658.991,1230
659.473,1241
659.954,1230
660.436,1226
660.917,1237
661.398,1216
661.88,1226
662.361,1246
662.842,1206
663.323,1245
663.805,1220
664.286,1219
664.767,1241
665.248,1239
665.729,1244
666.21,1232
666.691,1229
667.172,1236
667.654,1205
668.134,1236
668.615,1236
669.096,1243
669.577,1248
670.058,1244
670.539,1240
671.018,1238
671.499,1227
671.979,1231
672.46,1234
672.941,1238
673.422,1224
673.902,1249
674.383,1219
674.864,1225
675.344,1247
675.823,1240
676.303,1232
676.784,1232
677.264,1247
677.745,1224
678.225,1240
678.704,1227
679.184,1243
679.665,1223
680.145,1247
680.625,1215
681.104,1220
681.584,1231
682.064,1238
682.544,1235
683.025,1230
683.503,1251
683.983,1230
684.463,1238
684.943,1231
685.421,1238
685.901,1219
686.381,1232
686.861,1234
687.339,1214
687.819,1210
688.299,1222
688.779,1231
689.257,1227
689.737,1212
690.217,1224
690.694,1221
691.174,1246
691.654,1243
692.132,1238
692.611,1237
693.091,1242
693.569,1236
694.048,1228
694.528,1243
695.005,1239
695.485,1228
695.962,1230
696.442,1241
696.921,1237
697.399,1240
697.878,1261
698.356,1228
698.835,1242
699.314,1256
699.792,1226
700.271,1221
700.748,1228
701.227,1222
701.705,1230
702.184,1250
702.663,1234
703.14,1245
703.619,1228
704.096,1230
704.575,1238
705.052,1232
705.531,1228
706.008,1224
706.487,1246
706.964,1218
707.443,1235
707.92,1239
708.399,1226
708.876,1232
709.353,1238
709.831,1228
710.308,1256
710.787,1253
711.264,1236
711.742,1237
712.219,1230
712.698,1204
713.174,1234
713.651,1236
714.129,1243
714.606,1250
715.084,1242
715.561,1225
716.037,1227
716.516,1250
716.992,1245
717.468,1232
717.947,1248
718.423,1224
718.899,1235
719.378,1210
719.854,1229
720.33,1245
720.808,1232
721.285,1218
721.761,1224
722.239,1208
722.715,1245
723.191,1232
723.667,1232
724.145,1238
724.621,1214
725.097,1234
725.575,1242
726.051,1242
726.527,1240
727.003,1226
727.481,1240
727.956,1230
728.432,1233
728.908,1229
729.384,1219
729.862,1239
730.337,1244
730.813,1212
731.289,1245
731.764,1250
732.242,1230
732.717,1251
733.193,1252
733.668,1236
734.144,1216
734.619,1231
735.097,1249
735.572,1247
736.048,1229
736.523,1232
736.998,1246
737.474,1226
737.949,1237
738.424,1228
738.9,1236
739.377,1233
739.852,1226
740.327,1224
740.802,1232
741.278,1247
741.753,1240
742.228,1231
742.703,1235
743.178,1229
743.653,1256
744.128,1212
744.603,1244
745.078,1236
745.553,1230
746.027,1250
746.502,1232
746.977,1245
747.452,1239
747.927,1247
748.401,1252
748.876,1242
749.351,1242
749.826,1233
750.3,1240
750.775,1260
751.249,1260
751.724,1230
752.199,1246
752.673,1260
753.148,1237
753.62,1239
754.095,1252
754.569,1256
755.043,1255.74
755.518,1235.66
755.992,1244.91
756.466,1242.15
756.941,1249.49
757.415,1250.6
757.887,1229.51
758.362,1231.83
758.836,1244.2
759.31,1245.4
759.784,1254.23
760.258,1249.61
760.73,1226.93
761.204,1240.97
761.678,1242.94
762.152,1249.34
762.626,1254.83
763.098,1253.16
763.572,1231.29
764.046,1232.36
764.52,1222.12
764.994,1234.42
765.466,1248.25
765.94,1251.18
766.414,1249.86
766.887,1244.57
767.359,1234.7
767.833,1250.29
768.307,1247.06
768.778,1245.04
769.252,1240.05
769.726,1238.36
770.199,1258.2
770.671,1238.17
771.144,1232.58
771.618,1244.08
772.089,1243.98
772.563,1248.17
773.036,1248.29
773.508,1226.45
773.981,1224.24
774.455,1226.66
774.926,1237.88
775.399,1233.8
775.873,1237.33
776.344,1240.22
776.817,1255.32
777.288,1247.67
777.762,1239.04
778.235,1240.6
778.706,1251.24
779.179,1250.77
779.65,1249.12
780.123,1258.79
780.596,1270.62
781.068,1286.38
781.541,1293.13
782.012,1296.17
782.484,1305.46
782.955,1297.41
783.428,1283.44
783.899,1308.06
784.372,1286.17
784.843,1279.63
785.316,1279.51
785.789,1284.39
786.259,1286.47
786.732,1278.8
787.203,1291.94
787.674,1294.93
788.146,1306.26
788.617,1308.97
789.089,1320.12
789.56,1343.02
790.033,1364.52
790.503,1365.53
790.976,1350.15
791.446,1341.64
791.919,1329.54
792.389,1325.61
792.86,1305.96
793.332,1284.05
793.802,1289.09
794.275,1278.5
794.745,1273.08
795.215,1257.36
795.688,1259.42
796.158,1242.13
796.63,1247.77
797.1,1235.75
797.571,1245.61
798.043,1252.97
798.513,1224.98
798.983,1233.82
799.455,1239.77
799.925,1243.32
800.395,1237.28
800.867,1221.84
801.337,1240.45
801.807,1234.54
802.279,1226.17
802.749,1239.15
803.219,1225.36
803.254,1224
803.73,1228
804.206,1235
804.682,1214
805.157,1211
805.633,1245
806.109,1225
806.584,1225
807.06,1210
807.536,1226
808.011,1212
808.487,1238
808.962,1229
809.438,1226
809.913,1215
810.389,1245
810.864,1235
811.339,1196
811.815,1239
812.29,1240
812.766,1232
813.241,1212
813.716,1219
814.191,1225
814.667,1216
815.142,1212
815.617,1212
816.092,1212
816.567,1208
817.042,1223
817.517,1196
817.992,1204
818.467,1202
818.94,1208
819.415,1220
819.89,1223
820.365,1210
820.84,1217
821.315,1210
821.79,1199
822.265,1209
822.737,1220
823.212,1215
823.687,1216
824.162,1238
824.636,1211
825.111,1223
825.584,1216
826.058,1206
826.533,1211
827.007,1214
827.482,1226
827.954,1223
828.429,1208
828.903,1235
829.378,1221
829.852,1220
830.325,1201
830.799,1200
831.273,1193
831.748,1228
832.22,1208
832.694,1226
833.169,1212
833.643,1220
834.115,1222
834.589,1214
835.063,1211
835.535,1214
836.01,1218
836.484,1220
836.958,1221
837.43,1222
837.904,1222
838.378,1212
838.85,1207
839.323,1220
839.797,1214
840.269,1212
840.743,1214
841.217,1219
841.689,1232
842.163,1222
842.634,1222
843.108,1202
843.582,1211
844.053,1227
844.527,1207
845.001,1229
845.472,1222
845.946,1190
846.417,1213
846.891,1222
847.362,1226
847.836,1209
848.309,1222
848.781,1222
849.254,1230
849.726,1218
850.199,1224
850.67,1212
851.144,1223
851.615,1215
852.088,1216
852.559,1224
853.033,1203
853.504,1206
853.977,1227
854.448,1227
854.921,1228
855.392,1210
855.865,1239
856.336,1238
856.809,1243
857.28,1212
857.753,1201
858.224,1207
858.697,1211
859.168,1228
859.639,1233
860.112,1230
860.583,1222
861.055,1216
861.526,1219
861.997,1230
862.469,1224
862.94,1229
863.413,1222
863.883,1217
864.354,1237
864.827,1214
865.297,1232
865.77,1215
866.24,1229
866.711,1250
867.183,1218
867.654,1222
868.124,1218
868.597,1226
869.067,1223
869.537,1220
870.008,1220
870.48,1219
870.95,1226
871.42,1218
871.893,1214
872.363,1213
872.833,1228
873.305,1214
873.775,1214
874.245,1215
874.715,1236
875.188,1220
875.658,1235
876.128,1216
876.598,1221
877.068,1237
877.539,1236
878.009,1222
878.479,1232
878.949,1208
879.421,1208
879.891,1233
880.36,1212
880.83,1225
881.3,1217
881.77,1224
882.241,1224
882.711,1202
883.181,1226
883.65,1224
884.12,1224
884.589,1210
885.059,1222
885.53,1214
886,1226
886.469,1224
886.939,1231
887.408,1211
887.878,1227
888.347,1225
888.816,1237
889.286,1237
889.757,1226
890.226,1220
890.695,1227
891.165,1234
891.634,1250
892.103,1221
892.572,1225
893.041,1216
893.51,1227
893.98,1222
894.449,1206
894.918,1238
895.387,1217
895.856,1243
896.325,1226
896.794,1234
897.262,1241
897.731,1232
898.2,1230
898.669,1229
899.138,1235
899.607,1234
900.075,1244
900.544,1235
901.013,1220
901.481,1258
901.95,1235
902.419,1233
902.885,1228
903.354,1224
903.823,1236
904.291,1236
904.76,1212
905.228,1213
905.697,1248
906.165,1208
906.633,1234
907.1,1223
907.568,1239
908.036,1214
908.505,1214
908.973,1249
909.441,1216
909.91,1211
910.376,1206
910.844,1230
911.312,1217
911.78,1228
912.249,1216
912.717,1238
913.183,1214
913.651,1226
914.119,1231
914.587,1232
915.053,1238
915.521,1220
915.989,1226
916.457,1215
916.924,1224
917.39,1216
917.858,1245
918.326,1224
918.792,1212
919.26,1204
919.727,1216
920.195,1216
920.661,1218
921.128,1220
921.596,1216
922.062,1224
922.529,1215
922.997,1225
923.464,1232
923.93,1234
924.397,1233
924.865,1214
925.33,1224
925.798,1230
926.263,1231
926.731,1247
927.198,1222
927.663,1230
928.13,1214
928.598,1227
929.063,1221
929.53,1221
929.996,1222
930.463,1222
930.93,1229
931.395,1226
931.862,1228
932.327,1254
932.794,1204
933.259,1238
933.726,1228
934.193,1226
934.658,1229
935.125,1224
935.59,1232
936.057,1241
936.522,1226
936.989,1218
937.454,1232
937.92,1231
938.385,1225
938.852,1230
939.317,1218
939.783,1245
940.248,1239
940.715,1237
941.179,1225
941.646,1226
942.111,1250
942.575,1216
943.042,1236
943.506,1230
943.973,1216
944.437,1214
944.904,1236
945.368,1237
945.832,1244
946.299,1240
946.763,1224
947.229,1227
947.694,1240
948.158,1227
948.624,1212
949.089,1226
949.553,1222
950.019,1215
950.483,1230
950.949,1251
951.413,1218
951.877,1219
952.343,1232
952.807,1218
953.271,1228
953.735,1228
954.201,1224
954.665,1248
955.129,1234
955.595,1218
956.059,1236
956.523,1236
956.987,1228
957.453,1232
957.916,1218
958.38,1230
958.846,1235
959.309,1237
959.773,1227
960.237,1228
960.701,1247
961.166,1235
961.63,1225
962.093,1238
962.557,1225
963.022,1238
963.486,1248
963.949,1240
964.413,1234
964.876,1240
965.339,1253
965.805,1222
966.268,1228
966.732,1242
967.195,1228
967.658,1238
968.121,1264
968.585,1245
969.05,1252
969.513,1266
969.976,1252
970.439,1256
970.902,1260
971.365,1264
971.828,1274
972.292,1251
972.755,1258
973.218,1260
973.682,1246
974.145,1250
974.608,1234
975.071,1233
975.534,1249
975.997,1250
976.46,1245
976.923,1234
977.385,1238
977.848,1260
978.311,1249
978.773,1249
979.236,1225
979.699,1228
980.161,1252
980.624,1232
981.087,1222
981.549,1242
982.012,1233
982.474,1239
982.937,1229
983.399,1242
983.862,1234
984.324,1240
984.785,1252
985.247,1260
985.709,1259
986.172,1237
986.634,1241
987.096,1248
987.558,1236
988.021,1242
988.483,1225
988.945,1244
989.405,1248
989.867,1236
990.329,1228
990.792,1260
991.254,1246
991.716,1250
992.178,1232
992.638,1248
993.1,1225
993.562,1236
994.023,1243
994.485,1237
994.947,1234
995.407,1238
995.869,1231
996.331,1236
996.793,1241
997.252,1259
997.714,1238
998.176,1228
998.637,1253
999.099,1223
999.559,1240
1000.02,1240
1000.48,1242
1000.94,1248
1001.4,1222
1001.86,1239
1002.33,1234
1002.79,1234
1003.25,1237
1003.71,1241
1004.17,1251
1004.63,1240
1005.09,1249
1005.55,1234
1006.01,1224
1006.47,1241
1006.93,1253
1007.39,1252
1007.85,1249
1008.31,1223
1008.77,1228
1009.24,1251
1009.7,1234
1010.16,1248
1010.62,1214
1011.08,1234
1011.54,1244
1012,1250
1012.46,1238
1012.92,1236
1013.38,1238
1013.84,1244
1014.3,1227
1014.76,1240
1015.22,1243
1015.68,1238
1016.14,1251
1016.6,1222
1017.06,1226
1017.52,1240
1017.98,1240
1018.44,1236
1018.9,1234
1019.36,1234
1019.82,1245
1020.27,1234
1020.73,1235
1021.19,1228
1021.65,1226
1022.11,1262
1022.57,1234
1023.03,1239
1023.49,1247
1023.95,1254
1024.41,1250
1024.87,1238
1025.33,1236
1025.79,1223
1026.25,1227
1026.7,1231
1027.16,1241
1027.62,1232
1028.08,1218
1028.54,1240
1029,1231
1029.46,1233
1029.92,1244
1030.38,1216
1030.84,1224
1031.29,1234
1031.75,1258
1032.21,1258
1032.67,1220
1033.13,1229
1033.59,1234
1034.05,1224
1034.5,1245
1034.96,1228
1035.42,1232
1035.88,1235
1036.34,1236
1036.8,1228
1037.25,1242
1037.71,1230
1038.17,1237
1038.63,1256
1039.09,1226
1039.54,1234
1040,1231
1040.46,1228
1040.92,1240
1041.38,1231
1041.84,1243
1042.29,1234
1042.75,1228
1043.21,1242
1043.67,1241
1044.12,1232
1044.58,1234
1045.04,1240
1045.5,1245
1045.95,1238
1046.41,1263
1046.87,1248
1047.33,1247
1047.79,1227
1048.24,1242
1048.7,1242
1049.16,1260
1049.61,1233
1050.07,1250
1050.53,1229
1050.99,1244
1051.44,1240
1051.9,1242
1052.36,1218
1052.81,1245
1053.27,1232
1053.73,1240
1054.19,1239
1054.64,1218
1055.1,1246
1055.56,1226
1056.01,1238
1056.47,1258
1056.93,1237
1057.38,1244
1057.84,1248
1058.3,1247
1058.75,1266
1059.21,1240
1059.67,1221
1060.12,1240
1060.58,1258
1061.04,1236
1061.49,1241
1061.95,1230
1062.41,1234
1062.86,1258
1063.32,1230
1063.77,1245
1064.23,1250
1064.69,1229
1065.14,1242
1065.6,1244
1066.06,1241
1066.51,1242
1066.97,1255
1067.42,1256
1067.88,1237
1068.34,1260
1068.79,1224
1069.25,1227
1069.7,1262
1070.16,1258
1070.62,1248
1071.07,1234
1071.53,1240
1071.98,1247
1072.44,1238
1072.89,1238
1073.35,1255
1073.81,1236
1074.26,1240
1074.71,1234
1075.17,1257
1075.63,1230
1076.08,1251
1076.54,1238
1076.99,1239
1077.45,1251
1077.9,1242
1078.36,1251
1078.81,1263
1079.27,1246
1079.72,1234
1080.18,1255
1080.63,1256
1081.09,1260
1081.54,1242
1082,1252
1082.45,1266
1082.91,1256
1083.36,1253
1083.82,1248
1084.27,1250
1084.73,1243
1085.18,1226
1085.64,1234
1086.09,1236
1086.54,1241
1087,1276
1087.45,1252
1087.91,1238
1088.36,1259
1088.82,1255
1089.27,1257
1089.72,1238
1090.18,1235
1090.63,1244
1091.09,1224
1091.54,1270
1092,1259
1092.45,1245
1092.9,1238
1093.36,1256
1093.81,1249
1094.27,1244
1094.72,1256
1095.17,1250
1095.63,1241
1096.08,1254
1096.54,1265
1096.99,1264
1097.44,1268
1097.9,1256
1098.35,1244
1098.8,1255
1099.26,1237
1099.71,1248
1100.17,1248
1100.62,1266
1101.07,1272
1101.52,1257
1101.98,1262
1102.43,1268
1102.88,1256
1103.34,1286
1103.79,1268
1104.24,1246
1104.7,1274
1105.15,1278
1105.6,1267
1106.06,1276
1106.51,1294
1106.96,1280
1107.41,1262
1107.87,1272
1108.32,1282
1108.78,1268
1109.23,1287
1109.68,1288
1110.13,1266
1110.59,1267
1111.04,1268
1111.49,1245
1111.94,1270
1112.4,1264
1112.85,1254
1113.3,1257
1113.75,1271
1114.21,1258
1114.66,1266
1115.11,1234
1115.56,1268
1116.02,1252
1116.47,1252
1116.92,1248
1117.37,1265
1117.83,1271
1118.28,1242
1118.73,1240
1119.18,1249
1119.63,1242
1120.09,1261
1120.54,1250
1120.99,1247
1121.44,1259
1121.89,1260
1122.34,1248
1122.8,1250
1123.25,1267
1123.7,1250
1124.15,1262
1124.6,1247
1125.05,1256
1125.51,1250
1125.96,1261
1126.41,1224
1126.86,1260
1127.31,1248
1127.76,1263
1128.22,1228
1128.67,1252
1129.12,1274
1129.57,1256
1130.02,1245
1130.47,1246
1130.92,1251
1131.37,1248
1131.82,1246
1132.27,1270
1132.73,1261
1133.18,1232
1133.63,1240
1134.08,1245
1134.53,1248
1134.98,1243
1135.43,1256
1135.88,1258
1136.33,1258
1136.78,1256
1137.23,1242
1137.68,1254
1138.14,1254
1138.59,1258
1139.04,1240
1139.49,1256
1139.94,1244
1140.39,1268
1140.84,1262
1141.29,1244
1141.74,1262
1142.19,1250
1142.64,1254
1143.09,1249
1143.54,1248
1143.99,1262
1144.44,1250
1144.89,1240
1145.34,1239
1145.79,1259
1146.24,1264
1146.69,1258
1147.14,1253
1147.59,1269
1148.04,1252
1148.49,1269
1148.94,1255
1149.39,1259
1149.84,1250
1150.29,1234
1150.74,1245
1151.19,1250
1151.64,1230
1152.09,1252
1152.54,1265
1152.99,1261
1153.44,1226
1153.89,1249
1154.34,1232
1154.78,1267
1155.23,1250
1155.68,1256
1156.13,1265
1156.58,1248
1157.03,1249
1157.48,1240
1157.93,1248
1158.38,1266
1158.83,1262
1159.28,1246
1159.72,1255
1160.17,1226
1160.62,1269
1161.07,1244
1161.52,1254
1161.97,1252
1162.42,1258
1162.87,1265
1163.31,1214
1163.76,1263
1164.21,1246
1164.66,1259
1165.11,1242
1165.56,1247
1166.01,1251
1166.46,1258
1166.9,1263
1167.35,1239
1167.8,1240
1168.25,1230
1168.7,1256
1169.14,1230
1169.59,1254
1170.04,1271
1170.49,1224
1170.94,1242
1171.39,1268
1171.83,1254
1172.28,1262
1172.73,1242
1173.18,1274
1173.63,1251
1174.07,1248
1174.52,1255
1174.97,1262
1175.42,1263
1175.86,1254
1176.31,1246
1176.76,1252
1177.21,1236
1177.66,1262
1178.1,1245
1178.55,1246
1179,1260
1179.45,1260
1179.89,1266
1180.34,1261
1180.79,1260
1181.23,1260
1181.68,1261
1182.13,1264
1182.58,1252
1183.02,1267.93
1183.47,1264.64
1183.92,1262.46
1184.37,1244.75
1184.81,1265.6
1185.26,1258.8
1185.71,1257.56
1186.15,1256.46
1186.6,1251.84
1187.05,1259.55
1187.49,1247.26
1187.94,1250.41
1188.39,1264.59
1188.83,1252.83
1189.28,1243.53
1189.73,1261.24
1190.17,1247.61
1190.62,1249.91
1191.07,1259.93
1191.51,1261.29
1191.96,1259.05
1192.41,1251.93
1192.85,1247.81
1193.3,1268.89
1193.75,1255.25
1194.19,1265.17
1194.64,1252.36
1195.09,1268.38
1195.53,1258.29
1195.98,1251.35
1196.42,1255.64
1196.87,1233.16
1197.32,1251.1
1197.76,1255.12
1198.21,1247.83
1198.65,1241.94
1199.1,1248.97
1199.55,1239.87
1199.99,1255.57
1200.44,1254.76
1200.88,1257.72
1201.33,1254.27
1201.78,1258.11
1202.22,1254.96
1202.67,1247.99
1203.11,1244.96
1203.56,1242.97
1204,1259.29
1204.45,1250.85
1204.9,1246.75
1205.34,1260
1205.79,1251.98
1206.23,1255.1
1206.68,1245.64
1207.12,1248.9
1207.57,1242.82
1208.01,1243.75
1208.46,1250.64
1208.9,1233.05
1209.35,1248.25
1209.79,1245.57
1210.24,1257.12
1210.68,1245.13
1211.13,1249.87
1211.57,1248.13
1212.02,1247.78
1212.46,1256.12
1212.91,1253.19
1213.35,1242.75
1213.8,1247.96
1214.24,1244.61
1214.69,1246.57
1215.13,1249.2
1215.58,1239.18
1216.02,1260.09
1216.47,1256.55
1216.91,1256.53
1217.36,1244.39
1217.8,1236.76
1218.25,1244.53
1218.69,1254.75
1219.13,1267.27
1219.58,1255.95
1220.02,1253.22
1220.47,1257.01
1220.91,1252.17
1221.36,1249.47
1221.8,1249.58
1222.24,1251.49
1222.69,1252.19
1223.13,1254.53
1223.58,1256.13
1224.02,1249.7
1224.46,1248.37
1224.91,1247.83
1225.35,1264.34
1225.8,1253.49
1226.24,1249.41
1226.68,1254
1227.13,1253.26
1227.52,1248
1227.97,1248
1228.42,1250
1228.87,1230
1229.31,1241
1229.76,1250
1230.21,1248
1230.66,1252
1231.11,1250
1231.56,1266
1232.01,1262
1232.46,1249
1232.91,1246
1233.35,1256
1233.8,1275
1234.25,1262
1234.7,1247
1235.15,1261
1235.6,1258
1236.05,1258
1236.49,1256
1236.94,1276
1237.39,1249
1237.84,1261
1238.29,1260
1238.74,1266
1239.18,1267
1239.63,1264
1240.08,1284
1240.53,1252
1240.98,1276
1241.43,1252
1241.87,1269
1242.32,1296
1242.77,1272
1243.22,1274
1243.67,1284
1244.11,1290
1244.56,1282
1245.01,1283
1245.46,1286
1245.91,1286
1246.35,1292
1246.8,1321
1247.25,1293
1247.7,1293
1248.14,1296
1248.59,1313
1249.04,1304
1249.49,1284
1249.93,1307
1250.38,1314
1250.83,1292
1251.28,1284
1251.72,1298
1252.17,1263
1252.62,1294
1253.07,1288
1253.51,1284
1253.96,1274
1254.41,1287
1254.86,1276
1255.3,1236
1255.75,1282
1256.2,1258
1256.64,1261
1257.09,1265
1257.54,1250
1257.98,1252
1258.43,1273
1258.88,1247
1259.32,1250
1259.77,1238
1260.22,1262
1260.66,1264
1261.11,1232
1261.56,1240
1262.01,1246
1262.45,1272
1262.9,1242
1263.34,1271
1263.79,1266
1264.24,1260
1264.68,1236
1265.13,1255
1265.58,1272
1266.02,1269
1266.47,1271
1266.92,1260
1267.36,1264
1267.81,1270
1268.25,1289
1268.7,1265
1269.15,1283
1269.59,1293
1270.04,1299
1270.48,1288
1270.93,1309
1271.38,1322
1271.82,1326
1272.27,1366
1272.71,1396
1273.16,1407
1273.6,1428
1274.05,1433
1274.5,1434
1274.94,1424
1275.39,1392
1275.83,1374
1276.28,1341
1276.72,1340
1277.17,1332
1277.61,1328
1278.06,1324
1278.51,1299
1278.95,1274
1279.4,1284
1279.84,1294
1280.29,1280
1280.73,1283
1281.18,1271
1281.62,1269
1282.07,1254
1282.51,1268
1282.96,1268
1283.4,1272
1283.85,1275
1284.29,1244
1284.74,1264
1285.18,1246
1285.63,1256
1286.07,1254
1286.52,1266
1286.96,1265
1287.41,1233
1287.85,1246
1288.3,1236
1288.74,1251
1289.19,1261
1289.63,1243
1290.07,1236
1290.52,1255
1290.96,1261
1291.41,1252
1291.85,1254
1292.3,1249
1292.74,1266
1293.19,1214
1293.63,1258
1294.07,1264
1294.52,1258
1294.96,1254
1295.41,1258
1295.85,1234
1296.3,1255
1296.74,1252
1297.18,1248
1297.63,1252
1298.07,1265
1298.51,1222
1298.96,1240
1299.4,1243
1299.85,1242
1300.29,1254
1300.73,1253
1301.18,1248
1301.62,1261
1302.06,1255
1302.51,1250
1302.95,1250
1303.39,1272
1303.84,1239
1304.28,1247
1304.72,1255
1305.17,1253
1305.61,1257
1306.05,1259
1306.5,1256
1306.94,1254
1307.38,1232
1307.83,1258
1308.27,1245
1308.71,1247
1309.16,1248
1309.6,1246
1310.04,1260
1310.49,1247
1310.93,1250
1311.37,1257
1311.82,1256
1312.26,1247
1312.7,1253
1313.14,1245
1313.59,1252
1314.03,1251
1314.47,1246
1314.92,1258
1315.36,1256
1315.8,1259
1316.24,1254
1316.69,1250
1317.13,1258
1317.57,1243
1318.01,1268
1318.46,1256
1318.9,1240
1319.34,1248
1319.78,1267
1320.22,1248
1320.67,1255
1321.11,1254
1321.55,1274
1321.99,1256
1322.44,1254
1322.88,1248
1323.32,1256
1323.76,1258
1324.2,1249
1324.64,1254
1325.09,1220
1325.53,1241
1325.97,1243
1326.41,1263
1326.85,1261
1327.3,1248
1327.74,1262
1328.18,1266
1328.62,1241
1329.06,1272
1329.51,1235
1329.95,1255
1330.39,1245
1330.83,1244
1331.27,1279
1331.71,1270
1332.15,1266
1332.6,1252
1333.04,1251
1333.48,1269
1333.92,1256
1334.36,1251
1334.8,1253
1335.24,1262
1335.68,1254
1336.12,1231
1336.57,1253
1337.01,1269
1337.45,1262
1337.89,1240
1338.33,1253
1338.77,1237
1339.21,1254
1339.65,1251
1340.09,1246
1340.53,1244
1340.98,1250
1341.42,1257
1341.86,1264
1342.3,1231
1342.74,1245
1343.18,1234
1343.62,1240
1344.06,1251
1344.5,1261
1344.94,1257
1345.38,1246
1345.82,1246
1346.26,1248
1346.7,1263
1347.14,1261
1347.58,1236
1348.02,1260
1348.46,1242
1348.9,1263
1349.34,1270
1349.78,1256
1350.22,1254
1350.66,1260
1351.1,1257
1351.54,1259
1351.98,1252
1352.42,1253
1352.86,1240
1353.3,1264
1353.74,1265
1354.18,1256
1354.62,1264
1355.06,1261
1355.5,1268
1355.94,1272
1356.38,1270
1356.82,1255
1357.26,1279
1357.7,1283
1358.14,1244
1358.58,1276
1359.02,1272
1359.46,1278
1359.9,1248
1360.33,1277
1360.77,1263
1361.21,1269
1361.65,1275
1362.09,1286
1362.53,1256
1362.97,1268
1363.41,1254
1363.85,1268
1364.29,1272
1364.73,1253
1365.16,1246
1365.6,1266
1366.04,1259
1366.48,1273
1366.92,1242
1367.36,1238
1367.8,1259
1368.24,1268
1368.68,1250
1369.11,1247
1369.55,1253
1369.99,1248
1370.43,1250
1370.87,1262
1371.31,1260
1371.75,1267
1372.18,1228
1372.62,1249
1373.06,1252
1373.5,1247
1373.94,1248
1374.37,1259
1374.81,1248
1375.25,1256
1375.69,1244
1376.13,1244
1376.57,1254
1377,1240
1377.44,1261
1377.88,1252
1378.32,1242
1378.76,1232
1379.19,1255
1379.63,1260
1380.07,1234
1380.51,1260
1380.94,1245
1381.38,1244
1381.82,1251
1382.26,1261
1382.7,1250
1383.13,1263
1383.57,1256
1384.01,1242
1384.44,1257
1384.88,1236
1385.32,1242
1385.76,1253
1386.2,1257
1386.63,1236
1387.07,1244
1387.51,1257
1387.94,1246
1388.38,1278
1388.82,1250
1389.26,1267
1389.69,1255
1390.13,1233
1390.57,1261
1391,1249
1391.44,1235
1391.88,1249
1392.31,1240
1392.75,1257
1393.19,1253
1393.62,1242
1394.06,1250
1394.5,1261
1394.94,1232
1395.37,1253
1395.81,1229
1396.24,1238
1396.68,1240
1397.12,1238
1397.56,1265
1397.99,1236
1398.43,1273
1398.86,1245
1399.3,1256
1399.74,1235
1400.17,1253
1400.61,1249
1401.05,1250
1401.48,1254
1401.92,1216
1402.35,1251
1402.79,1260
1403.23,1245
1403.66,1247
1404.1,1254
1404.53,1232
1404.97,1267
1405.41,1259
1405.84,1267
1406.28,1250
1406.71,1238
1407.15,1251
1407.59,1270
1408.02,1252
1408.46,1254
1408.89,1265
1409.33,1252
1409.76,1258
1410.2,1250
1410.64,1228
1411.07,1251
1411.51,1230
1411.94,1255
1412.38,1230
1412.81,1258
1413.25,1246
1413.68,1252
1414.12,1245
1414.55,1230
1414.99,1264
1415.42,1244
1415.86,1228
1416.29,1252
1416.73,1255
1417.16,1243
1417.6,1256
1418.03,1250
1418.47,1249
1418.9,1256
1419.34,1256
1419.77,1246
1420.21,1238
1420.64,1256
1421.08,1254
1421.51,1251
1421.95,1257
1422.38,1260
1422.82,1230
1423.25,1264
1423.69,1242
1424.12,1241
1424.56,1248
1424.99,1258
1425.42,1260
1425.86,1263
1426.29,1228
1426.73,1247
1427.16,1264
1427.59,1247
1428.03,1253
1428.46,1266
1428.9,1258
1429.33,1234
1429.77,1248
1430.2,1242
1430.63,1253
1431.07,1264
1431.5,1255
1431.94,1247
1432.37,1253
1432.8,1264
1433.24,1243
1433.67,1243
1434.1,1263
1434.54,1252
1434.97,1252
1435.41,1239
1435.84,1259
1436.27,1250
1436.71,1281
1437.14,1262
1437.57,1248
1438.01,1268
1438.44,1257
1438.88,1257
1439.31,1250
1439.74,1253
1440.17,1252
1440.61,1240
1441.04,1256
1441.47,1260
1441.91,1264
1442.34,1256
1442.77,1246
1443.21,1247
1443.64,1256
1444.07,1251
1444.51,1260
1444.94,1252
1445.37,1262
1445.8,1263
1446.24,1252
1446.67,1267
1447.1,1256
1447.54,1268
1447.97,1264
1448.4,1238
1448.83,1252
1449.27,1263
1449.7,1261
1450.13,1254
1450.57,1257
1451,1265
1451.43,1275
1451.86,1265.67
1452.3,1268.56
1452.73,1269.74
1453.16,1267.99
1453.59,1268.76
1454.02,1268.83
1454.46,1268.53
1454.89,1274.53
1455.32,1272.78
1455.75,1292
1456.18,1260
1456.62,1276
1457.05,1256
1457.48,1286
1457.91,1275
1458.34,1259
1458.78,1259
1459.21,1264
1459.64,1267
1460.07,1286
1460.5,1244
1460.94,1267
1461.37,1271
1461.8,1279
1462.23,1282
1462.66,1280
1463.09,1255
1463.53,1255
1463.96,1262
1464.39,1277
1464.82,1251
1465.25,1272
1465.68,1243
1466.12,1266
1466.55,1246
1466.98,1268
1467.41,1271
1467.84,1269
1468.27,1278
1468.7,1263
1469.13,1264
1469.56,1282
1470,1279
1470.43,1253
1470.86,1273
1471.29,1264
1471.72,1270
1472.15,1242
1472.58,1258
1473.01,1263
1473.44,1263
1473.87,1258
1474.31,1242
1474.74,1256
1475.17,1261
1475.6,1258
1476.03,1278
1476.46,1248
1476.89,1266
1477.32,1261
1477.75,1236
1478.18,1260
1478.61,1270
1479.04,1271
1479.47,1249
1479.9,1260
1480.33,1262
1480.76,1259
1481.19,1258
1481.62,1263
1482.05,1255
1482.48,1252
1482.91,1247
1483.34,1278
1483.77,1259
1484.2,1248
1484.63,1259
1485.06,1260
1485.49,1248
1485.92,1272
1486.35,1248
1486.78,1270
1487.21,1265
1487.64,1254
1488.07,1258
1488.5,1264
1488.93,1270
1489.36,1242
1489.79,1263
1490.22,1260
1490.65,1274
1491.08,1246
1491.51,1238
1491.94,1262
1492.37,1272
1492.8,1268
1493.23,1250
1493.66,1252
1494.09,1265
1494.51,1251
1494.94,1256
1495.37,1258
1495.8,1275
1496.23,1244
1496.66,1243
1497.09,1268
1497.52,1268
1497.95,1256
1498.38,1257
1498.81,1268
1499.23,1258
1499.66,1286
