Raman Shift (1/cm),Intensity (Counts)
301.431,1156
301.759,1149
302.088,1165
302.416,1154
302.743,1144
303.072,1140
303.4,1149
303.729,1152
304.056,1156
304.384,1156
304.712,1154
305.039,1153
305.368,1158
305.696,1136
306.024,1157
306.351,1154
306.679,1140
307.008,1151
307.335,1149
307.663,1149
307.991,1142
308.318,1153
308.646,1150
308.974,1144
309.301,1155
309.629,1156
309.956,1158
310.284,1164
310.612,1130
310.939,1140
311.267,1157
311.593,1144
311.922,1156
312.25,1142
312.576,1146
312.904,1145
313.231,1138
313.559,1148
313.885,1140
314.213,1150
314.541,1148
314.868,1150
315.196,1164
315.522,1156
315.85,1163
316.176,1154
316.504,1161
316.831,1155
317.159,1152
317.485,1155
317.813,1142
318.139,1154
318.465,1160
318.793,1156
319.12,1152
319.447,1147
319.774,1147
320.101,1138
320.428,1162
320.755,1154
321.082,1156
321.408,1151
321.735,1154
322.062,1158
322.389,1142
322.715,1136
323.042,1144
323.369,1148
323.695,1154
324.021,1150
324.349,1142
324.675,1142
325.001,1151
325.329,1146
325.655,1148
325.981,1145
326.308,1155
326.634,1148
326.96,1153
327.287,1151
327.613,1156
327.939,1154
328.267,1136
328.593,1161
328.918,1142
329.244,1160
329.572,1161
329.898,1158
330.223,1160
330.549,1144
330.876,1165
331.202,1146
331.528,1151
331.854,1152
332.18,1148
332.507,1166
332.833,1147
333.158,1152
333.484,1154
333.81,1173
334.137,1144
334.462,1147
334.788,1154
335.114,1154
335.439,1150
335.765,1156
336.091,1157
336.418,1150
336.743,1155
337.069,1156
337.394,1146
337.72,1156
338.045,1154
338.371,1170
338.696,1152
339.022,1156
339.347,1152
339.673,1164
340,1144
340.325,1157
340.65,1143
340.976,1144
341.301,1138
341.626,1155
341.952,1169
342.277,1148
342.602,1152
342.928,1159
343.253,1154
343.578,1156
343.904,1164
344.229,1152
344.554,1159
344.879,1160
345.204,1140
345.53,1161
345.855,1139
346.179,1150
346.504,1161
346.829,1152
347.154,1146
347.479,1152
347.804,1161
348.129,1151
348.454,1163
348.779,1156
349.104,1168
349.43,1154
349.753,1177
350.078,1136
350.403,1140
350.728,1156
351.053,1165
351.378,1159
351.703,1152
352.026,1152
352.351,1159
352.676,1148
353.001,1154
353.326,1150
353.649,1152
353.974,1156
354.299,1155
354.624,1149
354.949,1157
355.272,1160
355.597,1147
355.921,1149
356.246,1148
356.569,1146
356.894,1152
357.219,1161
357.542,1154
357.867,1157
358.191,1140
358.516,1154
358.839,1164
359.164,1144
359.489,1149
359.812,1153
360.136,1152
360.461,1152
360.784,1147
361.108,1164
361.433,1140
361.756,1147
362.081,1149
362.405,1147
362.728,1150
363.052,1149
363.375,1165
363.7,1155
364.024,1154
364.347,1148
364.672,1162
364.995,1162
365.319,1160
365.643,1158
365.966,1142
366.291,1151
366.613,1146
366.938,1162
367.26,1160
367.585,1143
367.908,1167
368.232,1160
368.555,1164
368.879,1170
369.202,1140
369.526,1156
369.848,1154
370.173,1152
370.495,1146
370.819,1150
371.142,1151
371.466,1146
371.789,1159
372.113,1152
372.436,1174
372.76,1128
373.082,1152
373.405,1141
373.729,1157
374.051,1154
374.375,1152
374.698,1159
375.02,1150
375.344,1160
375.667,1153
375.991,1156
376.313,1144
376.635,1159
376.959,1160
377.282,1161
377.604,1170
377.928,1146
378.25,1132
378.573,1156
378.897,1162
379.219,1142
379.541,1139
379.863,1156
380.187,1138
380.509,1152
380.832,1150
381.155,1156
381.478,1148
381.8,1154
382.122,1155
382.446,1148
382.768,1160
383.09,1154
383.412,1150
383.736,1150
384.058,1158
384.38,1157
384.702,1151
385.024,1157
385.348,1153
385.67,1152
385.992,1140
386.314,1134
386.636,1168
386.958,1157
387.281,1156
387.603,1151
387.925,1162
388.247,1163
388.569,1150
388.891,1152
389.213,1152
389.535,1124
389.858,1151
390.18,1166
390.502,1142
390.824,1144
391.146,1167
391.467,1148
391.789,1162
392.111,1146
392.433,1136
392.755,1146
393.076,1148
393.398,1154
393.72,1157
394.042,1150
394.363,1157
394.685,1149
395.007,1166
395.328,1158
395.65,1156
395.971,1145
396.293,1146
396.615,1151
396.936,1144
397.258,1164
397.579,1160
397.901,1153
398.223,1158
398.544,1144
398.866,1152
399.187,1156
399.509,1148
399.83,1144
400.15,1160
400.471,1154
400.793,1158
401.114,1132
401.436,1163
401.757,1132
402.078,1158
402.4,1140
402.72,1159
403.041,1152
403.362,1155
403.684,1161
404.005,1147
404.326,1161
404.646,1146
404.967,1160
405.289,1158
405.61,1158
405.931,1157
406.251,1162
406.572,1136
406.893,1148
407.214,1154
407.534,1149
407.855,1156
408.176,1153
408.497,1162
408.817,1156
409.138,1142
409.459,1134
409.779,1164
410.1,1161
410.421,1136
410.742,1174
411.061,1166
411.382,1157
411.703,1153
412.023,1152
412.344,1162
412.665,1142
412.984,1154
413.305,1155
413.626,1149
413.945,1148
414.266,1169
414.586,1144
414.906,1152
415.227,1158
415.547,1149
415.867,1157
416.187,1147
416.508,1162
416.828,1164
417.148,1148
417.468,1154
417.788,1155
418.108,1154
418.428,1142
418.748,1159
419.067,1150
419.388,1142
419.707,1157
420.028,1156
420.347,1134
420.668,1146
420.987,1159
421.307,1138
421.627,1144
421.947,1128
422.266,1159
422.587,1164
422.906,1144
423.226,1124
423.545,1159
423.864,1152
424.185,1160
424.504,1136
424.824,1146
425.143,1175
425.464,1151
425.782,1142
426.101,1146
426.422,1140
426.741,1157
427.06,1148
427.38,1140
427.699,1143
428.019,1156
428.338,1168
428.657,1132
428.977,1158
429.296,1136
429.614,1130
429.933,1130
430.253,1155
430.572,1152
430.891,1152
431.211,1149
431.53,1151
431.848,1159
432.167,1154
432.487,1154
432.806,1159
433.125,1143
433.443,1150
433.763,1163
434.082,1148
434.4,1146
434.719,1158
435.039,1150
435.357,1138
435.676,1157
435.995,1151
436.313,1149
436.633,1156
436.951,1160
437.27,1158
437.588,1157
437.907,1143
438.225,1151
438.544,1142
438.863,1146
439.182,1161
439.5,1177
439.819,1150
440.137,1142
440.455,1141
440.774,1159
441.092,1151
441.41,1145
441.73,1150
442.048,1142
442.366,1156
442.685,1165
443.003,1147
443.321,1167
443.639,1160
443.958,1120
444.276,1152
444.594,1166
444.912,1150
445.23,1146
445.548,1136
445.866,1142
446.184,1148
446.503,1157
446.821,1154
447.139,1144
447.457,1156
447.775,1140
448.093,1156
448.411,1150
448.729,1161
449.045,1142
449.363,1155
449.681,1148
449.999,1158
450.317,1149
450.635,1147
450.953,1156
451.271,1143
451.589,1158
451.906,1154
452.223,1167
452.541,1152
452.859,1144
453.176,1162
453.494,1147
453.812,1157
454.128,1144
454.446,1158
454.764,1159
455.081,1154
455.399,1146
455.715,1134
456.033,1157
456.351,1150
456.668,1151
456.986,1149
457.302,1148
457.62,1142
457.938,1153
458.255,1150
458.571,1152
458.889,1154
459.206,1147
459.524,1152
459.84,1152
460.158,1152
460.475,1148
460.791,1168
461.109,1156
461.426,1156
461.742,1155
462.06,1155
462.377,1137
462.693,1154
463.01,1166
463.328,1158
463.644,1154
463.961,1150
464.277,1146
464.594,1142
464.912,1151
465.227,1134
465.545,1160
465.861,1153
466.178,1161
466.495,1149
466.811,1168
467.128,1166
467.444,1144
467.761,1158
468.077,1161
468.394,1148
468.71,1149
469.027,1138
469.344,1145
469.66,1150
469.977,1138
470.293,1140
470.61,1138
470.925,1157
471.241,1156
471.558,1166
471.873,1145
472.19,1160
472.506,1157
472.823,1159
473.139,1158
473.456,1157
473.771,1146
474.088,1157
474.404,1155
474.719,1156
475.036,1154
475.351,1145
475.668,1146
475.984,1147
476.299,1146
476.616,1165
476.931,1138
477.247,1158
477.563,1168
477.879,1149
478.194,1161
478.511,1148
478.826,1162
479.142,1159
479.458,1134
479.774,1155
480.089,1152
480.405,1158
480.721,1151
481.036,1156
481.351,1150
481.668,1146
481.983,1146
482.298,1157
482.613,1154
482.93,1146
483.245,1144
483.56,1157
483.875,1153
484.192,1149
484.507,1161
484.822,1146
485.137,1168
485.452,1160
485.767,1152
486.083,1147
486.398,1150
486.713,1160
487.028,1132
487.343,1155
487.658,1143
487.975,1146
488.29,1154
488.604,1144
488.919,1147
489.234,1152
489.549,1162
489.864,1158
490.179,1161
490.494,1155
490.81,1154
491.125,1167
491.44,1156
491.754,1139
492.069,1162
492.384,1144
492.699,1146
493.013,1154
493.328,1147
493.643,1167
493.957,1140
494.272,1150
494.587,1150
494.901,1154
495.216,1152
495.531,1148
495.845,1130
496.16,1148
496.474,1152
496.789,1134
497.104,1154
497.418,1132
497.733,1126
498.046,1140
498.36,1157
498.675,1156
498.989,1138
499.304,1156
499.618,1165
499.933,1147
500.247,1148
500.561,1160
500.876,1155
501.189,1151
501.503,1171
501.818,1152
502.132,1152
502.446,1156
502.761,1132
503.073,1144
503.388,1157
503.702,1150
504.016,1159
504.331,1147
504.643,1156
504.958,1149
505.272,1157
505.586,1152
505.9,1158
506.213,1149
506.527,1146
506.841,1126
507.155,1144
507.468,1153
507.782,1158
508.096,1142
508.409,1146
508.723,1142
509.037,1164
509.351,1165
509.664,1150
509.978,1140
510.292,1145
510.605,1146
510.919,1150
511.233,1151
511.545,1144
511.859,1143
512.172,1148
512.485,1144
512.799,1136
513.112,1160
513.426,1150
513.74,1130
514.052,1140
514.366,1144
514.678,1152
514.992,1151
515.305,1154
515.618,1150
515.932,1145
516.244,1163
516.558,1140
516.87,1141
517.184,1138
517.497,1149
517.81,1154
518.122,1138
518.436,1151
518.748,1142
519.062,1146
519.374,1138
519.688,1146
520,1136
520.314,1149
520.626,1150
520.94,1140
521.252,1140
521.564,1143
521.877,1142
522.189,1148
522.503,1159
522.815,1148
523.127,1141
523.441,1150
523.753,1138
524.066,1150
524.378,1147
524.69,1131
525.003,1152
525.315,1157
525.627,1142
525.941,1132
526.253,1154
526.565,1142
526.878,1151
527.19,1151
527.502,1152
527.815,1148
528.127,1137
528.439,1153
528.752,1148
529.064,1142
529.376,1157
529.688,1155
530.001,1144
530.312,1136
530.624,1149
530.936,1149
531.249,1149
531.561,1150
531.873,1144
532.184,1143
532.497,1144
532.809,1154
533.121,1159
533.432,1144
533.744,1128
534.056,1164
534.369,1152
534.68,1146
534.992,1142
535.303,1146
535.615,1154
535.926,1134
536.239,1152
536.551,1157
536.862,1142
537.174,1137
537.485,1162
537.797,1166
538.108,1146
538.42,1154
538.731,1144
539.043,1150
539.354,1148
539.665,1152
539.978,1143
540.29,1157
540.601,1156
540.912,1144
541.224,1152
541.535,1152
541.846,1158
542.157,1150
542.469,1157
542.78,1148
543.091,1133
543.403,1150
543.714,1154
544.025,1150
544.336,1139
544.646,1144
544.957,1154
545.268,1154
545.579,1152
545.891,1122
546.202,1148
546.513,1154
546.824,1162
547.135,1158
547.446,1153
547.757,1141
548.067,1155
548.378,1143
548.689,1156
549,1144
549.311,1142
549.622,1146
549.933,1159
550.242,1147
550.553,1147
550.864,1150
551.175,1140
551.486,1144
551.795,1142
552.106,1118
552.417,1142
552.728,1155
553.039,1155
553.348,1149
553.659,1150
553.97,1144
554.281,1142
554.59,1152
554.901,1138
555.212,1132
555.521,1158
555.832,1147
556.142,1141
556.453,1132
556.762,1144
557.073,1145
557.384,1133
557.693,1134
558.004,1150
558.314,1134
558.623,1138
558.934,1136
559.245,1140
559.554,1144
559.864,1144
560.174,1148
560.484,1142
560.795,1157
561.104,1141
561.414,1141
561.723,1140
562.034,1128
562.344,1138
562.653,1148
562.964,1146
563.273,1131
563.583,1138
563.892,1144
564.202,1136
564.511,1168
564.822,1147
565.131,1136
565.441,1157
565.75,1138
566.06,1130
566.369,1149
566.68,1146
566.988,1148
567.299,1162
567.607,1149
567.918,1142
568.227,1150
568.537,1148
568.845,1132
569.154,1143
569.464,1143
569.773,1167
570.083,1140
570.392,1148
570.701,1153
571.011,1157
571.32,1130
571.63,1135
571.938,1144
572.247,1145
572.557,1128
572.866,1138
573.174,1140
573.484,1145
573.793,1144
574.101,1128
574.411,1130
574.72,1142
575.028,1149
575.338,1146
575.647,1143
575.955,1141
576.264,1136
576.574,1151
576.882,1137
577.191,1137
577.499,1145
577.809,1134
578.117,1138
578.426,1145
578.734,1132
579.044,1129
579.352,1146
579.661,1151
579.969,1132
580.277,1142
580.586,1141
580.895,1134
581.204,1148
581.512,1149
581.82,1144
582.128,1130
582.437,1147
582.746,1142
583.054,1124
583.363,1142
583.671,1134
583.979,1133
584.287,1132
584.595,1134
584.903,1134
585.212,1150
585.52,1151
585.828,1145
586.137,1140
586.445,1131
586.753,1144
587.061,1136
587.369,1148
587.677,1139
587.985,1130
588.293,1136
588.601,1148
588.909,1139
589.217,1149
589.525,1139
589.833,1136
590.141,1146
590.449,1148
590.757,1128
591.065,1134
591.371,1156
591.679,1153
591.987,1142
592.295,1153
592.603,1146
592.911,1138
593.218,1130
593.526,1138
593.834,1146
594.142,1133
594.449,1134.03
594.756,1136.06
595.063,1135.58
595.371,1143.87
595.679,1148.99
595.987,1131.17
596.294,1137.55
596.6,1152.84
596.908,1140.5
597.216,1146.14
597.523,1154.31
597.831,1149.97
598.137,1141.33
598.445,1138.36
598.752,1140.23
599.06,1138.89
599.367,1137.81
599.674,1139.57
599.981,1150.44
600.289,1143.39
600.596,1133.44
600.902,1145.35
601.21,1146.61
601.517,1139.59
601.823,1147.5
602.131,1141.83
602.438,1142.48
602.745,1136.92
603.051,1141.79
603.359,1142.51
603.666,1143.75
603.972,1137.39
604.279,1148.32
604.587,1137.26
604.893,1149.81
605.2,1138.64
605.507,1140.9
605.813,1140.65
606.12,1143.04
606.426,1148.78
606.734,1141.15
607.041,1146.77
607.347,1139.6
607.654,1135.47
607.96,1135.65
608.267,1148.14
608.573,1148.21
608.88,1144.27
609.187,1146.76
609.493,1145.77
609.8,1141.75
610.105,1141.48
610.413,1150.13
610.718,1143.6
611.025,1138.03
611.331,1144.9
611.638,1136.88
611.944,1137.76
612.251,1144.1
612.556,1141.25
612.863,1138.13
613.169,1143.57
613.476,1140.85
613.781,1144.36
614.087,1150.43
614.394,1149.94
614.699,1148.45
615.006,1148.02
615.312,1144.36
615.619,1146.57
615.924,1134.98
616.23,1134.1
616.536,1143.11
616.842,1143.63
617.149,1136.81
617.454,1142.95
617.76,1146.68
618.066,1143.18
618.372,1136.94
618.677,1134.46
618.984,1136.31
619.289,1138.72
619.594,1148.36
619.901,1136.15
620.207,1140.65
620.512,1146.37
620.818,1141.53
621.124,1135.91
621.429,1128.15
621.734,1150.04
622.041,1144.49
622.346,1145.36
622.651,1150.6
622.956,1141.03
623.263,1144.44
623.568,1133.32
623.873,1137.65
624.179,1143.63
624.485,1149.4
624.79,1140.33
625.095,1151.37
625.4,1148.18
625.455,1147
625.764,1143
626.074,1152
626.384,1146
626.694,1128
627.004,1134
627.314,1151
627.623,1130
627.933,1136
628.243,1141
628.553,1153
628.862,1138
629.172,1130
629.482,1151
629.791,1143
630.1,1139
630.411,1132
630.72,1142
631.029,1148
631.339,1136
631.648,1143
631.958,1142
632.268,1137
632.577,1142
632.886,1148
633.196,1148
633.505,1138
633.814,1137
634.123,1142
634.434,1142
634.743,1139
635.051,1137
635.36,1145
635.671,1122
635.979,1140
636.288,1124
636.597,1147
636.906,1142
637.216,1146
637.525,1135
637.834,1132
638.143,1137
638.451,1136
638.762,1148
639.07,1134
639.379,1148
639.688,1135
639.997,1130
640.305,1136
640.614,1131
640.924,1134
641.233,1134
641.541,1149
641.85,1139
642.159,1131
642.467,1146
642.776,1148
643.084,1140
643.393,1128
643.702,1133
644.01,1148
644.32,1141
644.629,1138
644.937,1135
645.246,1139
645.554,1137
645.863,1138
646.171,1148
646.479,1138
646.788,1145
647.096,1124
647.405,1142
647.713,1129
648.021,1118
648.33,1138
648.638,1132
648.947,1136
649.255,1144
649.563,1138
649.872,1140
650.178,1136
650.487,1135
650.795,1153
651.103,1128
651.412,1129
651.72,1122
652.028,1127
652.336,1142
652.644,1134
652.953,1148
653.259,1137
653.568,1140
653.876,1135
654.184,1149
654.492,1137
654.8,1140
655.108,1144
655.415,1132
655.723,1132
656.031,1142
656.339,1136
656.647,1134
656.954,1146
657.262,1128
657.57,1123
657.878,1159
658.186,1143
658.492,1147
658.8,1127
659.108,1129
659.416,1140
659.723,1138
660.03,1132
660.338,1146
660.646,1140
660.953,1145
661.26,1149
661.568,1122
661.875,1146
662.183,1130
662.49,1142
662.797,1128
663.104,1139
663.412,1139
663.719,1133
664.026,1153
664.334,1124
664.64,1137
664.948,1143
665.256,1142
665.562,1143
665.87,1137
666.177,1144
666.484,1132
666.791,1146
667.097,1136
667.405,1146
667.711,1137
668.019,1144
668.326,1133
668.633,1144
668.94,1144
669.246,1130
669.554,1141
669.86,1137
670.167,1148
670.473,1141
670.781,1128
671.087,1144
671.394,1129
671.7,1137
672.008,1132
672.314,1140
672.621,1136
672.927,1142
673.234,1143
673.54,1146
673.848,1127
674.154,1134
674.461,1143
674.767,1146
675.073,1135
675.38,1149
675.686,1132
675.993,1126
676.299,1140
676.605,1144
676.912,1129
677.218,1138
677.525,1135
677.831,1135
678.137,1145
678.444,1110
678.749,1122
679.055,1134
679.362,1141
679.668,1125
679.974,1140
680.281,1130
680.586,1132
680.892,1140
681.199,1136
681.505,1135
681.81,1136
682.116,1141
682.423,1144
682.729,1140
683.034,1134
683.34,1144
683.647,1132
683.952,1135
684.258,1142
684.563,1136
684.87,1150
685.176,1147
685.481,1143
685.786,1128
686.092,1148
686.399,1140
686.704,1140
687.01,1150
687.315,1140
687.62,1144
687.926,1138
688.232,1145
688.538,1136
688.843,1148
689.148,1120
689.454,1132
689.759,1146
690.064,1138
690.37,1132
690.676,1143
690.982,1140
691.287,1138
691.592,1134
691.897,1137
692.202,1140
692.508,1133
692.813,1130
693.118,1131
693.423,1142
693.728,1145
694.033,1139
694.338,1146
694.643,1142
694.949,1144
695.254,1136
695.559,1132
695.864,1152
696.169,1139
696.474,1146
696.779,1147
697.084,1138
697.389,1137
697.694,1138
697.999,1133
698.304,1123
698.609,1146
698.914,1135
699.219,1158
699.523,1126
699.828,1150
700.132,1134
700.437,1144
700.742,1127
701.046,1138
701.351,1138
701.656,1134
701.961,1147
702.266,1138
702.569,1141
702.874,1126
703.178,1122
703.483,1134
703.788,1132
704.093,1144
704.396,1133
704.701,1132
705.005,1153
705.31,1136
705.615,1122
705.918,1122
706.223,1127
706.527,1145
706.832,1122
707.135,1130
707.44,1150
707.744,1122
708.049,1146
708.352,1155
708.656,1136
708.961,1134
709.264,1132
709.569,1142
709.873,1122
710.177,1149
710.481,1142
710.785,1139
711.089,1137
711.392,1120
711.697,1141
712.001,1141
712.304,1137
712.609,1143
712.912,1139
713.216,1129
713.52,1144
713.823,1134
714.128,1144
714.432,1148
714.735,1141
715.039,1136
715.342,1149
715.646,1136
715.949,1141
716.253,1128
716.557,1134
716.86,1132
717.164,1132
717.467,1142
717.771,1124
718.074,1127
718.378,1135
718.681,1142
718.985,1134
719.288,1106
719.592,1142
719.895,1136
720.199,1140
720.501,1124
720.805,1122
721.108,1126
721.411,1137
721.715,1136
722.017,1128
722.321,1141
722.624,1148
722.928,1133
723.23,1150
723.533,1134
723.837,1133
724.139,1144
724.443,1124
724.746,1131
725.048,1143
725.352,1128
725.655,1135
725.957,1124
726.261,1156
726.563,1124
726.866,1135
727.169,1138
727.472,1145
727.774,1134
728.078,1133
728.38,1136
728.683,1144
728.986,1126
729.289,1139
729.591,1140
729.893,1122
730.197,1142
730.499,1124
730.801,1132
731.104,1136
731.407,1134
731.71,1133
732.012,1136
732.314,1127
732.617,1140
732.92,1134
733.222,1137
733.524,1132
733.826,1139
734.128,1139
734.432,1137
734.734,1146
735.036,1138
735.338,1130
735.64,1129
735.942,1127
736.246,1132
736.548,1133
736.85,1134
737.152,1128
737.454,1126
737.755,1127
738.057,1138
738.359,1136
738.661,1142
738.963,1136
739.265,1139
739.568,1118
739.87,1133
740.172,1135
740.474,1124
740.776,1128
741.078,1116
741.38,1122
741.681,1126
741.983,1125
742.285,1124
742.587,1130
742.889,1132
743.19,1144
743.492,1136
743.794,1120
744.096,1136
744.397,1151
744.699,1137
744.999,1136
745.301,1128
745.603,1124
745.904,1127
746.206,1146
746.508,1126
746.809,1138
747.111,1136
747.412,1134
747.714,1126
748.015,1130
748.316,1129
748.617,1142
748.919,1134
749.22,1120
749.522,1141
749.823,1141
750.125,1127
750.425,1147
750.726,1132
751.028,1136
751.329,1140
751.63,1144
751.931,1143
752.232,1130
752.533,1138
752.835,1125
753.135,1138
753.436,1135
753.737,1136
754.039,1137
754.339,1130
754.64,1136
754.941,1142
755.242,1138
755.542,1144
755.844,1136
756.145,1124
756.445,1132
756.746,1130
757.047,1139
757.347,1151
757.648,1145
757.949,1134
758.249,1131
758.55,1126
758.851,1131
759.151,1136
759.452,1136
759.753,1132
760.053,1134
760.354,1125
760.654,1140
760.955,1130
761.256,1145
761.555,1130
761.856,1125
762.156,1137
762.457,1144
762.757,1128
763.058,1122
763.358,1132
763.658,1142
763.959,1136
764.258,1135
764.559,1133
764.859,1130
765.16,1132
765.459,1130
765.76,1120
766.06,1134
766.36,1131
766.66,1136
766.961,1136
767.26,1133
767.559,1131
767.86,1132
768.16,1145
768.46,1137
768.76,1140
769.06,1141
769.36,1141
769.659,1116
769.96,1135
770.259,1136
770.56,1122
770.859,1137
771.158,1130
771.459,1132
771.758,1122
772.057,1128
772.358,1122
772.657,1145
772.956,1134
773.257,1136
773.556,1128
773.855,1128
774.156,1132
774.455,1124
774.754,1131
775.054,1129
775.354,1129
775.653,1136
775.952,1136
776.252,1128
776.551,1142
776.85,1126
777.149,1138
777.45,1142
777.749,1142
778.048,1122
778.346,1128
778.645,1141
778.946,1137
779.245,1125
779.544,1142
779.843,1120
780.141,1138
780.442,1142
780.741,1136
781.039,1144
781.338,1136
781.637,1140
781.936,1138
782.235,1138
782.535,1134
782.834,1144
783.133,1122
783.431,1138
783.73,1133
784.029,1142
784.328,1135
784.626,1134
784.925,1148
785.224,1138
785.522,1135
785.821,1131
786.121,1136
786.42,1131
786.718,1135
787.017,1135
787.316,1141
787.614,1129
787.913,1122
788.211,1140
788.51,1132
788.809,1144
789.107,1139
789.406,1128
789.703,1141
790.001,1136
790.3,1147
790.598,1141
790.897,1144
791.195,1143
791.494,1142
791.792,1151
792.091,1134
792.389,1160
792.687,1147
792.986,1136
793.284,1130
793.581,1141
793.879,1158
794.178,1126
794.476,1136
794.774,1135
795.073,1134
795.37,1132
795.668,1139
795.966,1124
796.264,1126
796.563,1140
796.861,1147
797.158,1135
797.456,1134
797.754,1126
798.052,1130
798.349,1135
798.647,1120
798.945,1137
799.244,1140
799.54,1132
799.839,1132
800.137,1114
800.435,1124
800.731,1141
801.029,1130
801.328,1134
801.624,1131
801.922,1132
802.22,1142
802.518,1126
802.815,1138
803.113,1131
803.411,1134
803.707,1126
804.005,1142
804.302,1137
804.6,1143
804.898,1130
805.194,1126
805.492,1138
805.79,1142
806.087,1126
806.384,1129
806.681,1129
806.979,1132
807.275,1140
807.573,1120
807.871,1116
808.167,1124
808.465,1133
808.761,1130
809.059,1126
809.356,1127
809.653,1112
809.95,1134
810.247,1116
810.544,1134
810.841,1125
811.138,1126
811.435,1128
811.732,1135
812.029,1142
812.325,1128
812.623,1134
812.919,1122
813.215,1125
813.513,1112
813.809,1119
814.107,1131
814.403,1133
814.701,1130
814.997,1133
815.293,1126
815.59,1123
815.886,1139
816.182,1128
816.48,1123
816.776,1132
817.072,1126
817.369,1127
817.666,1141
817.962,1126
818.259,1125
818.555,1129
818.851,1133
819.148,1132
819.444,1124
819.74,1112
820.038,1126
820.333,1120
820.629,1145
820.925,1133
821.223,1148
821.518,1114
821.814,1128
822.11,1119
822.407,1132
822.703,1131
822.999,1132
823.295,1139
823.591,1138
823.888,1130
824.184,1133
824.479,1130
824.775,1135
825.071,1131
825.368,1124
825.664,1130
825.959,1121
826.255,1130
826.551,1126
826.846,1137
827.142,1129
827.438,1120
827.735,1122
828.03,1129
828.326,1119
828.622,1128
828.917,1110
829.213,1126
829.508,1132
829.804,1117
830.1,1122
830.395,1133
830.691,1126
830.986,1134
831.282,1120
831.577,1141
831.873,1130
832.168,1140
832.464,1113
832.759,1133
833.054,1130
833.35,1117
833.645,1126
833.941,1129
834.236,1127
834.531,1113
834.827,1128
835.122,1134
835.417,1115
835.713,1125
836.008,1114
836.303,1116
836.599,1122
836.894,1134
837.188,1121
837.483,1118
837.778,1141
838.074,1126
838.369,1132
838.664,1129
838.959,1137
839.254,1120
839.548,1113
839.843,1138
840.138,1127
840.434,1134
840.729,1119
841.022,1118
841.318,1132
841.613,1144
841.908,1132
842.203,1122
842.497,1128
842.792,1114
843.087,1118
843.382,1129
843.675,1129
843.97,1121
844.265,1126
844.56,1123
844.854,1129
845.149,1128
845.444,1120
845.737,1132
846.032,1124
846.327,1133
846.621,1127
846.916,1134
847.21,1132
847.504,1123
847.799,1131
848.094,1112
848.387,1124
848.682,1113
848.977,1124
849.27,1122
849.565,1130
849.858,1136
850.153,1125
850.448,1107
850.741,1142
851.036,1124
851.329,1123
851.624,1141
851.917,1126
852.212,1122
852.507,1110
852.8,1122
853.094,1132
853.388,1127
853.682,1127
853.976,1116
854.27,1111
854.563,1118
854.858,1140
855.151,1124
855.446,1132
855.739,1116
856.032,1118
856.327,1129
856.62,1125
856.914,1123
857.207,1132
857.502,1124
857.795,1120
858.089,1122
858.382,1132
858.675,1118
858.97,1123
859.263,1106
859.556,1124
859.85,1131
860.143,1112
860.438,1104
860.731,1129
861.024,1114
861.318,1130
861.611,1128
861.904,1119
862.198,1136
862.491,1130
862.784,1114
863.077,1126
863.371,1121
863.664,1125
863.957,1112
864.251,1119
864.544,1119
864.837,1112
865.129,1120
865.424,1120
865.716,1124
866.009,1118
866.302,1126
866.596,1119
866.889,1118
867.181,1132
867.474,1126
867.767,1120
868.059,1124
868.354,1124
868.646,1127
868.939,1108
869.232,1120
869.524,1129
869.817,1137
870.111,1117
870.403,1123
870.696,1126
870.988,1123.98
871.281,1105.28
871.574,1114.34
871.866,1118.16
872.159,1104.82
872.451,1129.67
872.744,1125.63
873.038,1106.69
873.33,1124.35
873.622,1125.65
873.915,1136.94
874.207,1113.93
874.5,1124.76
874.792,1123.48
875.085,1128.46
875.377,1116.38
875.669,1121.31
875.962,1115.95
876.254,1125.02
876.547,1119.96
876.839,1122.06
877.131,1123.34
877.424,1111.28
877.716,1119.18
878.008,1122.9
878.3,1122.12
878.591,1128.57
878.884,1122.42
879.176,1128.03
879.468,1118.17
879.76,1118.9
880.053,1117.14
880.345,1121.51
880.637,1127.39
880.929,1126.38
881.221,1118.46
881.512,1114.86
881.804,1126.84
882.096,1119.89
882.389,1114.49
882.681,1114.92
882.973,1126.15
883.264,1119.45
883.556,1116.47
883.848,1124.47
884.14,1129.02
884.432,1115.57
884.724,1124.99
885.014,1120.2
885.307,1117.25
885.599,1122.27
885.891,1124.11
886.181,1125.04
886.473,1126.07
886.765,1120.61
887.057,1118.29
887.348,1120.76
887.639,1123.98
887.931,1119.66
888.222,1117.73
888.514,1127.39
888.806,1117.63
889.098,1112.04
889.388,1118.01
889.68,1118.42
889.972,1116.13
890.262,1123.59
890.554,1114.53
890.846,1115.76
891.136,1117.05
891.428,1122.89
891.718,1118.85
892.01,1115.52
892.302,1119.61
892.592,1115.42
892.884,1115.62
893.174,1115.45
893.466,1122.64
893.758,1114.62
894.048,1116.51
894.34,1117.46
894.63,1117.86
894.922,1124.15
895.212,1113.2
895.503,1123.86
895.795,1124.09
896.085,1119.98
896.377,1115.32
896.667,1124.26
896.959,1114.43
897.249,1111.66
897.54,1118.73
897.831,1117.6
898.122,1117.81
898.412,1121.73
898.702,1109.66
898.994,1115.5
899.284,1102.25
899.575,1115.76
899.866,1126.35
900.157,1116.59
900.447,1121.71
900.737,1112.19
901.028,1124.57
901.318,1118.61
901.61,1119.78
901.9,1117.31
902.19,1113.59
902.481,1108.64
902.518,1108
902.813,1111
903.107,1123
903.403,1113
903.698,1115
903.992,1123
904.287,1124
904.583,1122
904.877,1120
905.172,1115
905.466,1123
905.761,1131
906.056,1122
906.35,1119
906.646,1125
906.939,1126
907.235,1115
907.528,1124
907.824,1112
908.117,1129
908.413,1112
908.706,1118
909.002,1120
909.295,1121
909.591,1110
909.884,1120
910.179,1132
910.473,1128
910.768,1118
911.062,1120
911.357,1124
911.651,1130
911.946,1108
912.239,1127
912.534,1126
912.828,1102
913.122,1124
913.417,1102
913.71,1106
914.005,1118
914.299,1119
914.592,1132
914.887,1122
915.181,1114
915.476,1100
915.769,1129
916.063,1121
916.358,1124
916.651,1124
916.945,1112
917.239,1119
917.533,1117
917.826,1124
918.121,1116
918.414,1120
918.708,1123
919.003,1114
919.296,1104
919.589,1116
919.883,1120
920.177,1094
920.471,1116
920.764,1125
921.057,1116
921.352,1118
921.645,1114
921.939,1133
922.232,1111
922.527,1116
922.82,1121
923.113,1118
923.406,1106
923.7,1120
923.994,1114
924.287,1123
924.58,1118
924.874,1126
925.167,1119
925.46,1114
925.754,1125
926.047,1136
926.341,1124
926.634,1116
926.927,1106
927.22,1120
927.513,1111
927.806,1120
928.1,1119
928.393,1118
928.686,1115
928.979,1132
929.272,1121
929.565,1112
929.858,1118
930.151,1108
930.444,1109
930.737,1107
931.03,1117
931.323,1124
931.616,1113
931.909,1104
932.202,1130
932.495,1132
932.787,1111
933.08,1120
933.373,1100
933.666,1129
933.959,1096
934.252,1123
934.544,1106
934.837,1112
935.13,1124
935.423,1118
935.715,1115
936.008,1118
936.301,1116
936.594,1121
936.885,1112
937.178,1128
937.47,1128
937.763,1129
938.056,1116
938.348,1114
938.641,1108
938.933,1118
939.225,1117
939.517,1116
939.81,1117
940.102,1104
940.395,1119
940.688,1136
940.979,1128
941.271,1111
941.564,1121
941.856,1112
942.149,1118
942.44,1122
942.732,1128
943.025,1113
943.317,1112
943.608,1114
943.901,1124
944.193,1104
944.486,1128
944.777,1120
945.069,1115
945.361,1128
945.654,1122
945.945,1123
946.237,1119
946.529,1116
946.82,1111
947.113,1114
947.405,1106
947.696,1113
947.988,1129
948.28,1116
948.571,1118
948.863,1122
949.156,1128
949.446,1119
949.739,1122
950.029,1110
950.322,1123
950.614,1094
950.905,1121
951.197,1114
951.488,1128
951.78,1106
952.072,1124
952.362,1106
952.655,1107
952.945,1119
953.237,1122
953.528,1094
953.82,1108
954.111,1133
954.403,1114
954.693,1124
954.985,1106
955.276,1124
955.568,1108
955.859,1118
956.15,1118
956.441,1126
956.733,1119
957.023,1111
957.315,1130
957.606,1112
957.898,1108
958.188,1119
958.479,1128
958.771,1113
959.061,1108
959.353,1125
959.643,1117
959.934,1104
960.226,1123
960.516,1110
960.808,1131
961.098,1121
961.389,1115
961.68,1118
961.971,1106
962.261,1128
962.553,1120
962.843,1112
963.133,1112
963.425,1105
963.715,1121
964.006,1114
964.297,1116
964.587,1112
964.878,1123
965.168,1114
965.46,1124
965.75,1120
966.04,1121
966.33,1106
966.622,1123
966.912,1111
967.202,1106
967.492,1134
967.784,1112
968.074,1125
968.364,1110
968.654,1126
968.944,1120
969.235,1116
969.526,1120
969.816,1123
970.106,1114
970.396,1106
970.686,1118
970.977,1119
971.267,1112
971.557,1117
971.847,1121
972.137,1112
972.427,1125
972.717,1126
973.007,1116
973.298,1118
973.588,1111
973.878,1113
974.168,1126
974.458,1104
974.748,1118
975.037,1112
975.327,1117
975.617,1124
975.907,1128
976.197,1114
976.487,1115
976.776,1114
977.066,1118
977.356,1121
977.646,1118
977.935,1116
978.225,1114
978.515,1120
978.804,1116
979.094,1115
979.384,1116
979.674,1104
979.963,1108
980.253,1114
980.542,1124
980.832,1102
981.122,1114
981.41,1113
981.7,1112
981.989,1110
982.279,1118
982.568,1113
982.858,1118
983.147,1108
983.437,1131
983.726,1117
984.015,1110
984.304,1120
984.594,1116
984.883,1110
985.172,1110
985.462,1108
985.75,1107
986.039,1121
986.329,1128
986.618,1106
986.908,1122
987.196,1112
987.485,1106
987.774,1115
988.064,1112
988.352,1108
988.641,1122
988.93,1113
989.22,1106
989.508,1110
989.797,1112
990.086,1103
990.374,1114
990.663,1110
990.953,1117
991.242,1104
991.53,1118
991.819,1123
992.108,1119
992.396,1118
992.685,1118
992.974,1110
993.262,1116
993.551,1112
993.839,1116
994.128,1100
994.417,1122
994.705,1121
994.994,1114
995.282,1126
995.571,1126
995.86,1116
996.147,1115
996.436,1114
996.724,1103
997.013,1119
997.301,1105
997.59,1125
997.879,1110
998.166,1104
998.455,1103
998.743,1109
999.032,1117
999.319,1121
999.608,1114
999.896,1118
1000.18,1118
1000.47,1111
1000.76,1119
1001.05,1114
1001.34,1118
1001.62,1117
1001.91,1117
1002.2,1115
1002.49,1111
1002.78,1110
1003.06,1108
1003.35,1110
1003.64,1106
1003.93,1117
1004.22,1113
1004.5,1116
1004.79,1112
1005.08,1121
1005.37,1115
1005.66,1113
1005.94,1118
1006.23,1114
1006.52,1108
1006.81,1114
1007.09,1117
1007.38,1130
1007.67,1115
1007.96,1130
1008.24,1117
1008.53,1115
1008.82,1111
1009.11,1107
1009.4,1115
1009.68,1116
1009.97,1107
1010.26,1121
1010.55,1111
1010.83,1112
1011.12,1120
1011.41,1119
1011.7,1117
1011.98,1110
1012.27,1131
1012.56,1127
1012.84,1114
1013.13,1111
1013.42,1113
1013.71,1120
1013.99,1116
1014.28,1114
1014.57,1104
1014.85,1106
1015.14,1106
1015.43,1110
1015.72,1121
1016,1105
1016.29,1123
1016.58,1111
1016.86,1106
1017.15,1106
1017.44,1109
1017.73,1106
1018.01,1106
1018.3,1116
1018.59,1122
1018.87,1106
1019.16,1117
1019.45,1109
1019.73,1107
1020.02,1118
1020.31,1106
1020.59,1116
1020.88,1115
1021.17,1112
1021.45,1108
1021.74,1111
1022.03,1107
1022.31,1111
1022.6,1107
1022.89,1100
1023.17,1117
1023.46,1124
1023.75,1115
1024.03,1119
1024.32,1110
1024.61,1110
1024.89,1114
1025.18,1101
1025.47,1106
1025.75,1111
1026.04,1111
1026.32,1125
1026.61,1113
1026.9,1121
1027.18,1112
1027.47,1122
1027.76,1113
1028.04,1114
1028.33,1118
1028.62,1119
1028.9,1109
1029.19,1106
1029.47,1119
1029.76,1109
1030.05,1101
1030.33,1105
1030.62,1117
1030.9,1116
1031.19,1114
1031.48,1121
1031.76,1109
1032.05,1118
1032.33,1108
1032.62,1106
1032.9,1106
1033.19,1117
1033.48,1099
1033.76,1116
1034.05,1115
1034.33,1106
1034.62,1112
1034.91,1124
1035.19,1112
1035.48,1112
1035.76,1125
1036.05,1106
1036.34,1120
1036.62,1106
1036.91,1110
1037.19,1108
1037.48,1111
1037.76,1128
1038.05,1114
1038.33,1100
1038.62,1100
1038.9,1110
1039.19,1125
1039.48,1110
1039.76,1108
1040.05,1107
1040.33,1105
1040.62,1108
1040.9,1114
1041.19,1096
1041.47,1108
1041.76,1112
1042.04,1114
1042.33,1107
1042.61,1112
1042.9,1102
1043.18,1107
1043.47,1106
1043.75,1103
1044.04,1107
1044.33,1097
1044.61,1110
1044.9,1110
1045.18,1108
1045.47,1115
1045.75,1112
1046.04,1113
1046.32,1113
1046.6,1117
1046.89,1102
1047.17,1101
1047.46,1109
1047.74,1101
1048.03,1117
1048.31,1119
1048.6,1104
1048.88,1096
1049.17,1121
1049.45,1106
1049.74,1117
1050.02,1114
1050.31,1098
1050.59,1102
1050.88,1078
1051.16,1114
1051.45,1116
1051.73,1102
1052.02,1123
1052.3,1116
1052.58,1108
1052.87,1100
1053.15,1114
1053.44,1090
1053.72,1108
1054.01,1099
1054.29,1121
1054.58,1101
1054.86,1116
1055.14,1110
1055.43,1111
1055.71,1108
1056,
1056.28,1112
1056.57,1110
1056.85,1110
1057.13,1099
1057.42,1104
1057.7,1102
1057.99,1117
1058.27,1106
1058.55,1105
1058.84,1116
1059.12,1120
1059.41,1104
1059.69,1110
1059.98,1110
1060.26,1111
1060.54,1101
1060.83,1090
1061.11,1109
1061.39,1118
1061.68,1096
1061.96,1121
1062.25,1123
1062.53,1109
1062.81,1110
1063.1,1105
1063.38,1114
1063.67,1107
1063.95,1120
1064.23,1116
1064.52,1112
1064.8,1103
1065.08,1119
1065.37,1102
1065.65,1114
1065.93,1119
1066.22,1112
1066.5,1106
1066.79,1108
1067.07,1112
1067.35,1106
1067.64,1108
1067.92,1104
1068.2,1110
1068.49,1096
1068.77,1108
1069.05,1105
1069.34,1107
1069.62,1105
1069.9,1118
1070.19,1108
1070.47,1116
1070.75,1102
1071.04,1094
1071.32,1102
1071.6,1100
1071.89,1100
1072.17,1113
1072.45,1110
1072.73,1104
1073.02,1104
1073.3,1094
1073.58,1102
1073.87,1108
1074.15,1100
1074.43,1112
1074.72,1104
1075,
1075.28,1108
1075.57,1100
1075.85,1098
1076.13,1106
1076.41,1100
1076.7,1096
1076.98,1106
1077.26,1105
1077.54,1115
1077.83,1096
1078.11,1105
1078.39,1110
1078.68,1098
1078.96,1097
1079.24,1111
1079.52,1102
1079.81,1106
1080.09,1107
1080.37,1108
1080.65,1109
1080.94,1098
1081.22,1107
1081.5,1103
1081.78,1094
1082.07,1104
1082.35,1106
1082.63,1106
1082.91,1112
1083.2,1109
1083.48,1120
1083.76,1102
1084.04,1099
1084.33,1109
1084.61,1101
1084.89,1109
1085.17,1109
1085.46,1113
1085.74,1094
1086.02,1108
1086.3,1116
1086.58,1092
1086.87,1114
1087.15,1113
1087.43,1100
1087.71,1103
1087.99,1105
1088.28,1100
1088.56,1108
1088.84,1103
1089.12,1110
1089.4,1110
1089.69,1098
1089.97,1119
1090.25,1111
1090.53,1104
1090.81,1096
1091.1,1104
1091.38,1118
1091.66,1100
1091.94,1098
1092.22,1103
1092.5,1109
1092.79,1105
1093.07,1100
1093.35,1106
1093.63,1123
1093.91,1106
1094.19,1110
1094.47,1118
1094.76,1108
1095.04,1102
1095.32,1112
1095.6,1111
1095.88,1104
1096.16,1112
1096.45,1111
1096.73,1106
1097.01,1097
1097.29,1107
1097.57,1108
1097.85,1101
1098.13,1092
1098.42,1114
1098.7,1104
1098.98,1113
1099.26,1109
1099.54,1097
1099.82,1106
1100.1,1105
1100.38,1113
1100.66,1110
1100.95,1107
1101.23,1105
1101.51,1119
1101.79,1094
1102.07,1103
1102.35,1114
1102.63,1122
1102.91,1106
1103.19,1122
1103.48,1110
1103.76,1108
1104.04,1120
1104.32,1102
1104.6,1106
1104.88,1104
1105.16,1102
1105.44,1090
1105.72,1104
1106,
1106.28,1114
1106.56,1106
1106.85,1111
1107.13,1092
1107.41,1104
1107.69,1106
1107.97,1104
1108.25,1120
1108.53,1111
1108.81,1121
1109.09,1112
1109.37,1108
1109.65,1114
1109.93,1095
1110.21,1101
1110.49,1112
1110.77,1108
1111.05,1107
1111.33,1111
1111.62,1098
1111.89,1111
1112.18,1098
1112.46,1102
1112.74,1105
1113.02,1098
1113.3,1098
1113.58,1122
1113.86,1096
1114.14,1108
1114.42,1108
1114.7,1110
1114.98,1096
1115.26,1072
1115.54,1106
1115.82,1098
1116.1,1096
1116.38,1096
1116.66,1105
1116.94,1112
1117.22,1095
1117.5,1104
1117.78,1111
1118.06,1107
1118.34,1108
1118.62,1098
1118.9,1092
1119.18,1102
1119.46,1101
1119.74,1094
1120.02,1102
1120.3,1100
1120.58,1110
1120.86,1105
1121.14,1094
1121.42,1112
1121.7,1127
1121.98,1102
1122.26,1094
1122.53,1112
1122.81,1101
1123.09,1097
1123.37,1115
1123.65,1112
1123.93,1104
1124.21,1102
1124.49,1106
1124.77,1102
1125.05,1102
1125.33,1098
1125.61,1096
1125.89,1122
1126.17,1105
1126.45,1088
1126.73,1096
1127.01,1105
1127.29,1098
1127.56,1109
1127.84,1098
1128.12,1094
1128.4,1096
1128.68,1113
1128.96,1098
1129.24,1098
1129.52,1103
1129.8,1102
1130.08,1114
1130.36,1106
1130.63,1108
1130.91,1101
1131.19,1108
1131.47,1107
1131.75,1114
1132.03,1106
1132.31,1112
1132.59,1116
1132.87,1104
1133.15,1092
1133.42,1109
1133.7,1111
1133.98,1105
1134.26,1098
1134.54,1103
1134.82,1116
1135.1,1108
1135.38,1093
1135.65,1095
1135.93,1101.96
1136.21,1094.33
1136.49,1099.35
1136.77,1093.47
1137.05,1101.7
1137.33,1109
1137.6,1105.33
1137.88,1107.09
1138.16,1087.45
1138.44,1091.64
1138.72,1105.57
1139,
1139.28,1096.91
1139.55,1100.48
1139.83,1099.04
1140.11,1104.37
1140.39,1104.03
1140.67,1101.71
1140.95,1099
1141.22,1107.36
1141.5,1108.85
1141.78,1104.71
1142.06,1100.66
1142.34,1100.31
1142.62,1103.4
1142.89,1109.34
1143.17,1098.2
1143.45,1103.68
1143.73,1107.87
1144.01,1104.63
1144.28,1099.12
1144.56,1098.94
1144.84,1096.53
1145.12,1098.83
1145.4,1105.31
1145.67,1090.76
1145.95,1096.44
1146.23,1096.89
1146.51,1111.53
1146.79,1106.5
1147.06,1099.94
1147.34,1100.03
1147.62,1105.51
1147.9,1097.35
1148.18,1108.65
1148.45,1100.17
1148.73,1104.31
1149.01,1106.88
1149.29,1101.18
1149.56,1109.8
1149.84,1110.49
1150.12,1103.54
1150.4,1106.96
1150.67,1100.51
1150.95,1103.36
1151.23,1106.63
1151.51,1105.08
1151.79,1097.15
1152.06,1111.88
1152.34,1107.88
1152.62,1103.48
1152.89,1104.3
1153.17,1094.72
1153.45,1098.67
1153.73,1103.22
1154,
1154.28,1097.64
1154.56,1096.64
1154.84,1094.33
1155.11,1103.7
1155.39,1097.91
1155.67,1097.6
1155.95,1106.46
1156.22,1100.68
1156.5,1097.87
1156.78,1102.71
1157.06,1099.16
1157.33,1099.68
1157.61,1099.3
1157.89,1101.36
1158.16,1098.7
1158.44,1096.89
1158.72,1099.13
1158.99,1098.55
1159.27,1099.57
1159.55,1104.54
1159.83,1102.93
1160.1,1094.56
1160.38,1092.27
1160.66,1100.91
1160.93,1103.74
1161.21,1106.81
1161.49,1100.44
1161.76,1097.33
1162.04,1096.88
1162.32,1102.5
1162.59,1099.93
1162.87,1095.24
1163.15,1098.82
1163.42,1099.92
1163.7,1105.38
1163.98,1095.48
1164.25,1100.81
1164.48,1100
1164.76,1101
1165.04,1094
1165.32,1105
1165.6,1104
1165.88,1110
1166.16,1103
1166.45,1099
1166.73,1108
1167.01,1104
1167.29,1099
1167.57,1109
1167.85,1097
1168.13,1108
1168.41,1102
1168.69,1096
1168.97,1099
1169.25,1117
1169.53,1097
1169.82,1106
1170.1,1104
1170.38,1096
1170.66,1114
1170.94,1107
1171.22,1100
1171.5,1104
1171.78,1095
1172.06,1101
1172.34,1094
1172.62,1100
1172.9,1080
1173.18,1094
1173.46,1096
1173.74,1116
1174.02,1107
1174.3,1104
1174.58,1098
1174.86,1092
1175.14,1102
1175.43,1105
1175.7,1092
1175.99,1090
1176.27,1096
1176.55,1109
1176.83,1104
1177.11,1107
1177.39,1088
1177.67,1109
1177.95,1083
1178.23,1098
1178.51,1098
1178.79,1094
1179.07,1102
1179.35,1099
1179.63,1115
1179.91,1098
1180.19,1093
1180.47,1096
1180.75,1100
1181.03,1102
1181.31,1107
1181.59,1102
1181.87,1100
1182.15,1096
1182.43,1086
1182.71,1106
1182.99,1092
1183.27,1093
1183.54,1097
1183.83,1093
1184.1,1092
1184.38,1090
1184.66,1112
1184.94,1094
1185.22,1105
1185.5,1097
1185.78,1098
1186.06,1094
1186.34,1091
1186.62,1102
1186.9,1098
1187.18,1102
1187.46,1109
1187.74,1100
1188.02,1093
1188.3,1094
1188.58,1103
1188.86,1098
1189.14,1118
1189.41,1103
1189.7,1100
1189.97,1090
1190.25,1097
1190.53,1097
1190.81,1102
1191.09,1093
1191.37,1092
1191.65,1118
1191.93,1090
1192.21,1096
1192.49,1102
1192.77,1100
1193.05,1100
1193.32,1106
1193.6,1097
1193.88,1082
1194.16,1105
1194.44,1096
1194.72,1109
1195,
1195.28,1103
1195.56,1098
1195.83,1100
1196.11,1100
1196.39,1096
1196.67,1092
1196.95,1099
1197.23,1109
1197.51,1092
1197.79,1085
1198.07,1108
1198.34,1092
1198.62,1113
1198.9,1103
1199.18,1105
1199.46,1092
1199.74,1101
1200.02,1108
1200.29,1104
1200.57,1098
1200.85,1096
1201.13,1106
1201.41,1103
1201.69,1094
1201.97,1096
1202.24,1111
1202.52,1102
1202.8,1105
1203.08,1102
1203.36,1098
1203.64,1105
1203.91,1098
1204.19,1116
1204.47,1097
1204.75,1102
1205.03,1104
1205.31,1100
1205.58,1107
1205.86,1086
1206.14,1112
1206.42,1112
1206.7,1103
1206.97,1084
1207.25,1108
1207.53,1094
1207.81,1090
1208.09,1099
1208.36,1102
1208.64,1092
1208.92,1102
1209.2,1092
1209.48,1099
1209.75,1090
1210.03,1107
1210.31,1096
1210.59,1109
1210.87,1102
1211.14,1111
1211.42,1089
1211.7,1104
1211.98,1096
1212.26,1106
1212.53,1108
1212.81,1086
1213.09,1094
1213.37,1105
1213.64,1100
1213.92,1084
1214.2,1092
1214.48,1100
1214.75,1106
1215.03,1090
1215.31,1099
1215.59,1103
1215.86,1102
1216.14,1101
1216.42,1109
1216.7,1094
1216.97,1100
1217.25,1090
1217.53,1086
1217.81,1097
1218.08,1099
1218.36,1087
1218.64,1098
1218.92,1098
1219.19,1106
1219.47,1102
1219.75,1096
1220.03,1088
1220.3,1084
1220.58,1109
1220.86,1101
1221.13,1104
1221.41,1094
1221.69,1099
1221.97,1088
1222.24,1096
1222.52,1100
1222.8,1084
1223.07,1094
1223.35,1104
1223.63,1090
1223.9,1102
1224.18,1093
1224.46,1096
1224.74,1082
1225.01,1112
1225.29,1095
1225.57,1087
1225.84,1102
1226.12,1099
1226.4,1092
1226.67,1094
1226.95,1094
1227.23,1099
1227.5,1101
1227.78,1100
1228.06,1100
1228.33,1099
1228.61,1096
1228.89,1102
1229.16,1095
1229.44,1091
1229.72,1095
1229.99,1092
1230.27,1098
1230.54,1096
1230.82,1098
1231.1,1094
1231.37,1106
1231.65,1101
1231.93,1094
1232.2,1095
1232.48,1105
1232.76,1095
1233.03,1099
1233.31,1105
1233.59,1102
1233.86,1107
1234.14,1098
1234.41,1105
1234.69,1090
1234.97,1105
1235.24,1107
1235.52,1093
1235.79,1105
1236.07,1106
1236.35,1108
1236.62,1099
1236.9,1090
1237.18,1095
1237.45,1078
1237.73,1098
1238,
1238.28,1102
1238.56,1098
1238.83,1107
1239.11,1091
1239.38,1109
1239.66,1102
1239.94,1102
1240.21,1099
1240.49,1092
1240.76,1106
1241.04,1093
1241.31,1103
1241.59,1111
1241.87,1105
1242.14,1103
1242.42,1098
1242.69,1090
1242.97,1100
1243.24,1105
1243.52,1096
1243.8,1104
1244.07,1097
1244.35,1097
1244.62,1082
1244.9,1092
1245.17,1084
1245.45,1106
1245.72,1109
1246,
1246.27,1112
1246.55,1108
1246.83,1102
1247.1,1105
1247.38,1101
1247.65,1111
1247.93,1102
1248.2,1113
1248.48,1098
1248.75,1101
1249.03,1112
1249.3,1099
1249.58,1084
1249.85,1098
1250.13,1102
1250.4,1102
1250.68,1092
1250.95,1090
1251.23,1100
1251.5,1102
1251.78,1096
1252.05,1096
1252.33,1098
1252.6,1097
1252.88,1103
1253.15,1106
1253.43,1109
1253.7,1104
1253.98,1106
1254.25,1102
1254.53,1088
1254.8,1098
1255.08,1090
1255.35,1113
1255.63,1103
1255.9,1093
1256.18,1084
1256.45,1090
1256.73,1104
1257,
1257.28,1097
1257.55,1095
1257.82,1103
1258.1,1098
1258.37,1082
1258.65,1106
1258.92,1101
1259.2,1098
1259.47,1094
1259.75,1087
1260.02,1096
1260.3,1102
1260.57,1097
1260.84,1101
1261.12,1102
1261.39,1095
1261.67,1097
1261.94,1098
1262.22,1097
1262.49,1088
1262.76,1088
1263.04,1096
1263.31,1084
1263.59,1101
1263.86,1106
1264.14,1091
1264.41,1109
1264.68,1099
1264.96,1090
1265.23,1088
1265.51,1106
1265.78,1100
1266.05,1106
1266.33,1099
1266.6,1088
1266.88,1102
1267.15,1094
1267.42,1092
1267.7,1098
1267.97,1098
1268.25,1102
1268.52,1086
1268.79,1101
1269.07,1105
1269.34,1091
1269.62,1098
1269.89,1112
1270.16,1098
1270.44,1105
1270.71,1096
1270.98,1096
1271.26,1114
1271.53,1103
1271.81,1106
1272.08,1106
1272.35,1113
1272.63,1113
1272.9,1104
1273.17,1106
1273.45,1118
1273.72,1118
1273.99,1110
1274.27,1112
1274.54,1106
1274.81,1100
1275.09,1108
1275.36,1105
1275.63,1110
1275.91,1103
1276.18,1093
1276.45,1090
1276.73,1104
1277,
1277.27,1104
1277.55,1096
1277.82,1092
1278.09,1084
1278.37,1090
1278.64,1098
1278.91,1098
1279.19,1103
1279.46,1100
1279.73,1092
1280.01,1100
1280.28,1095
1280.55,1100
1280.82,1090
1281.1,1095
1281.37,1101
1281.64,1101
1281.92,1084
1282.19,1104
1282.46,1097
1282.74,1096
1283.01,1092
1283.28,1090
1283.55,1108
1283.83,1090
1284.1,1098
1284.37,1102
1284.64,1092
1284.92,1098
1285.19,1100
1285.46,1098
1285.74,1088
1286.01,1093
1286.28,1100
1286.55,1106
1286.83,1088
1287.1,1089
1287.37,1106
1287.64,1076
1287.92,1100
1288.19,1100
1288.46,1092
1288.73,1102
1289.01,1090
1289.28,1097
1289.55,1096
1289.82,1093
1290.1,1088
1290.37,1092
1290.64,1089
1290.91,1100
1291.19,1100
1291.46,1086
1291.73,1096
1292,
1292.27,1086
1292.55,1082
1292.82,1094
1293.09,1101
1293.36,1098
1293.64,1098
1293.91,1090
1294.18,1094
1294.45,1089
1294.72,1098
1295,
1295.27,1082
1295.54,1090
1295.81,1098
1296.08,1096
1296.36,1093
1296.63,1100
1296.9,1094
1297.17,1100
1297.44,1082
1297.72,1090
1297.99,1104
1298.26,1096
1298.53,1093
1298.8,1092
1299.07,1080
1299.35,1084
1299.62,1094
1299.89,1095
1300.16,1092
1300.43,1091
1300.7,1094
1300.98,1101
1301.25,1084
1301.52,1092
1301.79,1090
1302.06,1087
1302.33,1096
1302.61,1103
1302.88,1098
1303.15,1086
1303.42,1095
1303.69,1094
1303.96,1098
1304.23,1093
1304.51,1104
1304.78,1105
1305.05,1098
1305.32,1092
1305.59,1105
1305.86,1103
1306.13,1097
1306.4,1096
1306.68,1093
1306.95,1091
1307.22,1092
1307.49,1102
1307.76,1108
1308.03,1084
1308.3,1102
1308.57,1085
1308.84,1088
1309.12,1092
1309.39,1097
1309.66,1092
1309.93,1104
1310.2,1109
1310.47,1095
1310.74,1099
1311.01,1092
1311.28,1089
1311.55,1094
1311.82,1106
1312.1,1095
1312.37,1076
1312.64,1098
1312.91,1083
1313.18,1103
1313.45,1097
1313.72,1088
1313.99,1087
1314.26,1097
1314.53,1100
1314.8,1087
1315.07,1094
1315.34,1106
1315.62,1095
1315.89,1094
1316.16,1095
1316.43,1094
1316.7,1090
1316.97,1087
1317.24,1088
1317.51,1084
1317.78,1096
1318.05,1092
1318.32,1095
1318.59,1088
1318.86,1088
1319.13,1099
1319.4,1092
1319.67,1080
1319.94,1096
1320.21,1096
1320.48,1108
1320.75,1074
1321.02,1090
1321.29,1096
1321.56,1088
1321.83,1096
1322.11,1110
1322.38,1104
1322.65,1117
1322.92,1132
1323.19,1130
1323.46,1145
1323.73,1115
1324,1104
1324.27,1093
1324.54,1090
1324.81,1096
1325.08,1092
1325.34,1099
1325.61,1086
1325.88,1088
1326.15,1091
1326.42,1104
1326.69,1097
1326.96,1087
1327.23,1092
1327.5,1087
1327.77,1092
1328.04,1087
1328.31,1090
1328.58,1104
1328.85,1100
1329.12,1090
1329.39,1096
1329.66,1101
1329.93,1093
1330.2,1092
1330.47,1082
1330.74,1096
1331.01,1102
1331.28,1064
1331.55,1092
1331.82,1098
1332.09,1093
1332.36,1106
1332.63,1081
1332.89,1082
1333.16,1094
1333.43,1102
1333.7,1084
1333.97,1097
1334.24,1096
1334.51,1104
1334.78,1092
1335.05,1088
1335.32,1087
1335.59,1102
1335.86,1097
1336.13,1086
1336.4,1114
1336.66,1092
1336.93,1090
1337.2,1105
1337.47,1084
1337.74,1095
1338.01,1088
1338.28,1086
1338.55,1093
1338.82,1093
1339.09,1101
1339.36,1090
1339.62,1092
1339.89,1091
1340.16,1097
1340.43,1085
1340.7,1086
1340.97,1096
1341.24,1084
1341.51,1086
1341.77,1088
1342.04,1072
1342.31,1088
1342.58,1096
1342.85,1092
1343.12,1086
1343.39,1090
1343.66,1091
1343.92,1088
1344.19,1088
1344.46,1088
1344.73,1082
1345,1086
1345.27,1092
1345.54,1080
1345.8,1086
1346.07,1094
1346.34,1090
1346.61,1092
1346.88,1082
1347.15,1090
1347.42,1077
1347.68,1096
1347.95,1082
1348.22,1092
1348.49,1094
1348.76,1087
1349.02,1088
1349.29,1090
1349.56,1084
1349.83,1082
1350.1,1097
1350.37,1102
1350.63,1096
1350.9,1089
1351.17,1102
1351.44,1087
1351.71,1090
1351.97,1090
1352.24,1094
1352.51,1101
1352.78,1080
1353.05,1098
1353.31,1099
1353.58,1102
1353.85,1086
1354.12,1111
1354.39,1096
1354.65,1097
1354.92,1100
1355.19,1090
1355.46,1086
1355.73,1095
1355.99,1102
1356.26,1096
1356.53,1081
1356.8,1089
1357.06,1093
1357.33,1082
1357.6,1099
1357.87,1082
1358.14,1098
1358.4,1088
1358.67,1097
1358.94,1096
1359.2,1084
1359.47,1083
1359.74,1090
1360.01,1096
1360.28,1093
1360.54,1097
1360.81,1103
1361.08,1084
1361.34,1088
1361.61,1093
1361.88,1100
1362.15,1094
1362.41,1098
1362.68,1097
1362.95,1085
1363.22,1078
1363.48,1082
1363.75,1099
1364.02,1092
1364.29,1090
1364.55,1097
1364.82,1098
1365.09,1094
1365.35,1094
1365.62,1091
1365.89,1083
1366.15,1084
1366.42,1086
1366.69,1085
1366.96,1086
1367.22,1084
1367.49,1089
1367.76,1072
1368.02,1092
1368.29,1091
1368.56,1078
1368.83,1096
1369.09,1094
1369.36,1085
1369.63,1088
1369.89,1088
1370.16,1086
1370.43,1078
1370.69,1082
1370.96,1091
1371.23,1098
1371.49,1095
1371.76,1094
1372.03,1086
1372.29,1088
1372.56,1085
1372.83,1089
1373.09,1091
1373.36,1091
1373.63,1088
1373.89,1103
1374.16,1103
1374.43,1084
1374.69,1097
1374.96,1096
1375.22,1092
1375.49,1086
1375.76,1090
1376.02,1092
1376.29,1092
1376.56,1089
1376.82,1088
1377.09,1088
1377.36,1091
1377.62,1092
1377.89,1087
1378.15,1092
1378.42,1087
1378.69,1081
1378.95,1100
1379.22,1074
1379.48,1085
1379.75,1079
1380.02,1070
1380.28,1097
1380.55,1086
1380.82,1098
1381.08,1084
1381.35,1083
1381.61,1090
1381.88,1092
1382.15,1078
1382.41,1090
1382.68,1080
1382.94,1085
1383.21,1095
1383.48,1084
1383.74,1093
1384.01,1088
1384.27,1086
1384.54,1086
1384.8,1080
1385.07,1076
1385.34,1088
1385.6,1085
1385.87,1086
1386.13,1092
1386.4,1090
1386.66,1090
1386.93,1087
1387.2,1085
1387.46,1102
1387.73,1092
1387.99,1083
1388.26,1080
1388.52,1090
1388.79,1082
1389.05,1091
1389.32,1097.91
1389.58,1082.02
1389.85,1097.76
1390.12,1089.62
1390.38,1095.7
1390.65,1078.81
1390.91,1088.4
1391.18,1105.19
1391.44,1073.46
1391.71,1087.29
1391.97,1094.85
1392.24,1090.19
1392.5,1084.7
1392.77,1086.11
1393.03,1075.6
1393.3,1087.56
1393.56,1087.26
1393.83,1087.41
1394.09,1103.56
1394.36,1085.99
1394.62,1095.55
1394.89,1090.5
1395.15,1091.41
1395.42,1083.24
1395.68,1081.02
1395.95,1086
1396.21,1091.03
1396.48,1088.37
1396.74,1091.8
1397.01,1087.04
1397.27,1086.54
1397.54,1082.62
1397.8,1085.8
1398.07,1081.74
1398.33,1087.43
1398.6,1084.75
1398.86,1083.37
1399.13,1086.78
1399.39,1089.74
1399.66,1091.96
1399.92,1092.48
1400.19,1083.07
1400.45,1086.83
1400.72,1088.8
1400.98,1090.7
1401.24,1087.03
1401.51,1090.31
1401.77,1097.46
1402.04,1083.24
1402.3,1095.27
1402.57,1083.75
1402.83,1096.53
1403.1,1091.55
1403.36,1088.03
1403.63,1092.02
1403.89,1087.57
1404.15,1083.53
1404.42,1085.39
1404.68,1095.53
1404.95,1085.45
1405.21,1082.53
1405.48,1084.08
1405.74,1080
1406,1090.49
1406.27,1086.3
1406.53,1086.33
1406.8,1086.31
1407.06,1087.68
1407.33,1084.48
1407.59,1077.59
1407.85,1084.78
1408.12,1085.27
1408.38,1092.51
1408.65,1089.11
1408.91,1092.25
1409.17,1084.84
1409.44,1089.04
1409.7,1092.34
1409.97,1092.34
1410.23,1090.36
1410.49,1085.63
1410.76,1084.63
1411.02,1088.21
1411.29,1085.93
1411.55,1083.49
1411.81,1089.59
1412.08,1089.46
1412.34,1084.96
1412.61,1089.92
1412.87,1094.28
1413.13,1087.66
1413.4,1091.87
1413.66,1095.32
1413.92,1092.82
1414.19,1085.1
1414.45,1082.83
1414.71,1083.67
1414.98,1079.42
1415.24,1091.21
1415.44,1092
1415.71,1090
1415.98,1084
1416.25,1081
1416.52,1085
1416.78,1092
1417.05,1088
1417.32,1073
1417.59,1095
1417.85,1080
1418.12,1092
1418.39,1084
1418.66,1084
1418.93,1086
1419.19,1092
1419.46,1105
1419.73,1090
1420,1090
1420.26,1072
1420.53,1084
1420.8,1096
1421.07,1074
1421.33,1089
1421.6,1076
1421.87,1090
1422.14,1092
1422.4,1098
1422.67,1079
1422.94,1082
1423.21,1090
1423.47,1080
1423.74,1086
1424.01,1072
1424.28,1084
1424.54,1077
1424.81,1096
1425.08,1078
1425.35,1088
1425.61,1088
1425.88,1088
1426.15,1086
1426.41,1084
1426.68,1086
1426.95,1080
1427.21,1095
1427.48,1086
1427.75,1080
1428.02,1088
1428.28,1089
1428.55,1093
1428.82,1089
1429.08,1080
1429.35,1080
1429.62,1097
1429.89,1076
1430.15,1090
1430.42,1085
1430.69,1078
1430.95,1088
1431.22,1075
1431.49,1092
1431.75,1092
1432.02,1081
1432.29,1087
1432.55,1093
1432.82,1086
1433.09,1085
1433.35,1094
1433.62,1090
1433.89,1091
1434.15,1082
1434.42,1079
1434.69,1089
1434.95,1089
1435.22,1086
1435.49,1082
1435.75,1092
1436.02,1086
1436.29,1097
1436.55,1085
1436.82,1078
1437.09,1085
1437.35,1090
1437.62,1088
1437.88,1087
1438.15,1094
1438.42,1078
1438.68,1078
1438.95,1076
1439.22,1088
1439.48,1076
1439.75,1090
1440.02,1082
1440.28,1089
1440.55,1097
1440.81,1085
1441.08,1084
1441.35,1096
1441.61,1086
1441.88,1088
1442.15,1083
1442.41,1087
1442.68,1085
1442.94,1090.18
1443.21,1107.67
1443.48,1128.22
1443.74,1162.96
1444.01,1180.95
1444.27,1189.28
1444.54,1144.24
1444.81,1104.29
1445.07,1102
1445.34,1103
1445.6,1086
1445.87,1085
1446.13,1088
1446.4,1080
1446.67,1097
1446.93,1087
1447.2,1090
1447.46,1084
1447.73,1092
1447.99,1092
1448.26,1088
1448.53,1094
1448.79,1091
1449.06,1091
1449.32,1085
1449.59,1098
1449.85,1078
1450.12,1084
1450.39,1088
1450.65,1088
1450.92,1081
1451.18,1087
1451.45,1086
1451.71,1076
1451.98,1087
1452.24,1083
1452.51,1088
1452.77,1082
1453.04,1091
1453.3,1089
1453.57,1090
1453.84,1082
1454.1,1094
1454.37,1088
1454.63,1096
1454.9,1090
1455.16,1090
1455.43,1078
1455.69,1080
1455.96,1090
1456.22,1086
1456.49,1084
1456.75,1088
1457.02,1090
1457.28,1074
1457.55,1082
1457.81,1087
1458.08,1084
1458.34,1084
1458.61,1079
1458.87,1076
1459.14,1072
1459.4,1089
1459.67,1080
1459.93,1072
1460.2,1094
1460.46,1084
1460.73,1082
1460.99,1084
1461.26,1080
1461.52,1082
1461.79,1087
1462.05,1084
1462.32,1089
1462.58,1083
1462.85,1072
1463.11,1086
1463.38,1093
1463.64,1093
1463.91,1076
1464.17,1086
1464.43,1088
1464.7,1080
1464.96,1084
1465.23,1090
1465.49,1086
1465.76,1091
1466.02,1082
1466.29,1090
1466.55,1082
1466.81,1084
1467.08,1083
1467.34,1081
1467.61,1093
1467.87,1088
1468.14,1084
1468.4,1087
1468.66,1089
1468.93,1084
1469.19,1092
1469.46,1093
1469.72,1070
1469.99,1092
1470.25,1087
1470.51,1080
1470.78,1092
1471.04,1087
1471.31,1088
1471.57,1078
1471.84,1087
1472.1,1089
1472.36,1092
1472.63,1076
1472.89,1085
1473.15,1095
1473.42,1083
1473.68,1096
1473.95,1081
1474.21,1060
1474.47,1068
1474.74,1095
1475,1084
1475.27,1082
1475.53,1091
1475.79,1082
1476.06,1084
1476.32,1093
1476.59,1088
1476.85,1092
1477.11,1090
1477.38,1089
1477.64,1091
1477.9,1086
1478.17,1082
1478.43,1086
1478.69,1084
1478.96,1086
1479.22,1091
1479.48,1085
1479.75,1084
1480.01,1092
1480.28,1082
1480.54,1088
1480.8,1084
1481.07,1087
1481.33,1078
1481.59,1076
1481.86,1094
1482.12,1086
1482.38,1088
1482.65,1090
1482.91,1074
1483.17,1096
1483.44,1083
1483.7,1090
1483.96,1074
1484.23,1085
1484.49,1087
1484.75,1072
1485.02,1087
1485.28,1079
1485.54,1092
1485.81,1092
1486.07,1080
1486.33,1102
1486.59,1082
1486.86,1092
1487.12,1085
1487.38,1098
1487.65,1080
1487.91,1095
1488.17,1091
1488.44,1093
1488.7,1093
1488.96,1090
1489.22,1088
1489.49,1091
1489.75,1096
1490.01,1098
1490.28,1087
1490.54,1088
1490.8,1068
1491.06,1079
1491.33,1079
1491.59,1096
1491.85,1089
1492.11,1082
1492.38,1094
1492.64,1088
1492.9,1087
1493.17,1094
1493.43,1088
1493.69,1091
1493.95,1099
1494.21,1070
1494.48,1078
1494.74,1095
1495,1076
1495.27,1083
1495.53,1083
1495.79,1091
1496.05,1082
1496.31,1088
1496.58,1094
1496.84,1095
1497.1,1086
1497.36,1085
1497.63,1092
1497.89,1088
1498.15,1087
1498.41,1084
1498.68,1096
1498.94,1098
1499.2,1084
1499.46,1082
1499.72,1074
1499.99,1092
