Raman Shift (1/cm),Intensity (Counts)
302.468,1129
302.977,1139
303.486,1134
303.995,1144
304.503,1135
305.012,1145
305.521,1147
306.03,1144
306.538,1141
307.047,1145
307.556,1144
308.064,1145
308.573,1141
309.082,1128
309.59,1138
310.097,1128
310.605,1152
311.114,1128
311.622,1142
312.13,1118
312.639,1152
313.147,1131
313.655,1138
314.164,1141
314.672,1142
315.18,1146
315.686,1148
316.195,1136
316.703,1139
317.211,1134
317.719,1143
318.227,1126
318.735,1126
319.241,1129
319.749,1133
320.257,1138
320.765,1138
321.273,1141
321.781,1126
322.287,1135
322.794,1144
323.302,1133
323.81,1157
324.318,1144
324.823,1140
325.331,1138
325.839,1140
326.346,1141
326.852,1140
327.359,1140
327.867,1136
328.374,1144
328.88,1152
329.387,1143
329.895,1141
330.402,1145
330.907,1136
331.415,1139
331.922,1140
332.429,1142
332.935,1149
333.442,1134
333.949,1136
334.454,1144
334.961,1143
335.468,1152
335.973,1144
336.481,1128
336.988,1150
337.493,1138
338,1124
338.506,1143
339.011,1140
339.518,1146
340.023,1135
340.53,1146
341.037,1128
341.541,1118
342.048,1146
342.555,1132
343.06,1140
343.566,1134
344.071,1150
344.577,1142
345.082,1145
345.589,1140
346.095,1147
346.6,1144
347.106,1116
347.61,1145
348.117,1154
348.621,1154
349.128,1142
349.632,1156
350.138,1144
350.642,1132
351.149,1145
351.653,1129
352.159,1152
352.663,1152
353.169,1136
353.673,1135
354.179,1151
354.683,1145
355.189,1147
355.693,1148
356.199,1158
356.703,1145
357.209,1150
357.713,1156
358.219,1142
358.723,1154
359.226,1128
359.732,1152
360.236,1142
360.742,1141
361.245,1134
361.751,1153
362.255,1152
362.758,1151
363.264,1148
363.767,1140
364.271,1142
364.776,1134
365.28,1146
365.785,1140
366.289,1140
366.792,1158
367.297,1136
367.801,1161
368.304,1140
368.809,1142
369.312,1161
369.815,1126
370.321,1150
370.824,1148
371.327,1150
371.83,1142
372.335,1148
372.838,1139
373.341,1150
373.846,1150
374.349,1140
374.852,1148
375.355,1140
375.86,1148
376.362,1140
376.865,1150
377.368,1136
377.873,1132
378.376,1156
378.878,1138
379.381,1139
379.883,1146
380.388,1142
380.891,1142
381.393,1152
381.896,1148
382.398,1134
382.903,1160
383.405,1142
383.908,1136
384.41,1156
384.912,1158
385.415,1134
385.919,1154
386.421,1146
386.923,1135
387.426,1150
387.928,1141
388.43,1142
388.932,1165
389.434,1142
389.938,1137
390.44,1140
390.942,1151
391.444,1161
391.946,1150
392.448,1135
392.95,1147
393.452,1148
393.954,1156
394.456,1161
394.958,1122
395.459,1162
395.961,1147
396.463,1152
396.965,1150
397.466,1140
397.968,1154
398.469,1154
398.971,1140
399.473,1161
399.974,1145
400.476,1152
400.977,1132
401.479,1155
401.98,1150
402.481,1147
402.983,1170
403.484,1146
403.985,1142
404.487,1167
404.988,1136
405.489,1164
405.99,1154
406.491,1154
406.993,1159
407.494,1146
407.995,1142
408.496,1145
408.995,1152
409.496,1140
409.997,1158
410.498,1138
410.999,1135
411.5,1150
412,1146
412.501,1153
413.002,1140
413.501,1146
414.002,1140
414.502,1146
415.003,1150
415.504,1138
416.004,1136
416.503,1162
417.004,1139
417.504,1156
418.005,1150
418.505,1151
419.004,1157
419.504,1156
420.004,1146
420.505,1168
421.003,1152
421.504,1158
422.004,1146
422.504,1160
423.004,1145
423.503,1155
424.003,1151
424.503,1145
425.001,1150
425.501,1133
426.001,1153
426.501,1138
426.999,1157
427.499,1138
427.999,1156
428.497,1148
428.997,1149
429.497,1152
429.995,1172
430.495,1158
430.995,1139
431.493,1163
431.992,1149
432.492,1161
432.99,1154
433.489,1160
433.989,1155
434.487,1147
434.986,1166
435.486,1134
435.983,1148
436.483,1151
436.98,1154
437.48,1148
437.977,1142
438.477,1144
438.976,1156
439.473,1136
439.973,1156
440.47,1162
440.969,1148
441.467,1146
441.966,1151
442.465,1142
442.962,1153
443.461,1136
443.958,1160
444.457,1146
444.954,1156
445.453,1159
445.95,1151
446.449,1146
446.946,1152
447.445,1128
447.942,1157
448.441,1145
448.938,1160
449.437,1150
449.933,1156
450.43,1153
450.929,1144
451.426,1154
451.924,1152
452.421,1140
452.92,1143
453.416,1148
453.913,1138
454.411,1164
454.908,1158
455.406,1146
455.903,1138
456.399,1146
456.897,1145
457.394,1156
457.892,1140
458.388,1149
458.885,1128
459.383,1144
459.879,1168
460.375,1157
460.874,1128
461.37,1144
461.866,1124
462.364,1158
462.86,1168
463.356,1150
463.854,1148
464.35,1153
464.846,1148
465.342,1150
465.84,1148
466.336,1147
466.832,1146
467.329,1152
467.825,1154
468.321,1160
468.817,1149
469.314,1159.46
469.81,1166.33
470.306,1167.97
470.801,1174.22
471.297,1173.3
471.795,1171.83
472.29,1173.12
472.786,1172.75
473.281,1172.97
473.779,1172.33
474.274,1174.19
474.769,1168.61
475.265,1170
475.76,1149
476.256,1148
476.753,1166
477.248,1161
477.743,1156
478.239,1152
478.734,1165
479.229,1170
479.724,1140
480.221,1156
480.716,1163
481.211,1173
481.706,1157
482.201,1142
482.696,1149
483.191,1145
483.686,1156
484.181,1158
484.676,1156
485.171,1139
485.668,1160
486.163,1163
486.657,1151
487.152,1163
487.647,1166
488.141,1159
488.636,1156
489.131,1132
489.625,1155
490.12,1152
490.614,1146
491.109,1149
491.603,1148
492.098,1136
492.592,1153
493.087,1162
493.581,1146
494.076,1156
494.57,1169
495.064,1147
495.559,1168
496.053,1157
496.547,1158
497.041,1153
497.533,1150
498.027,1162
498.522,1150
499.016,1138
499.51,1164
500.004,1164
500.498,1158
500.992,1162
501.486,1149
501.98,1162
502.472,1159
502.965,1152
503.459,1148
503.953,1159
504.447,1158
504.941,1158
505.434,1161
505.926,1142
506.42,1146
506.913,1154
507.407,1148
507.901,1152
508.394,1144
508.886,1150
509.379,1146
509.873,1168
510.366,1144
510.86,1149
511.351,1162
511.845,1160
512.338,1164
512.831,1153
513.323,1162
513.816,1171
514.309,1151
514.802,1166
515.294,1144
515.787,1167
516.28,1161
516.771,1158
517.264,1158
517.757,1169
518.25,1154
518.741,1160
519.234,1160
519.727,1158
520.218,1148
520.711,1159
521.204,1158
521.695,1154
522.188,1155
522.681,1160
523.171,1150
523.664,1162
524.157,1147
524.647,1163
525.14,1154
525.631,1154
526.123,1152
526.616,1168
527.107,1160
527.599,1151
528.09,1169
528.582,1156
529.075,1155
529.565,1157
530.057,1165
530.548,1164
531.04,1163
531.53,1165
532.023,1162
532.515,1152
533.005,1164
533.497,1162
533.988,1178
534.48,1159
534.97,1170
535.462,1160
535.952,1156
536.444,1151
536.934,1170
537.426,1160
537.916,1160
538.408,1160
538.898,1150
539.388,1154
539.88,1146
540.37,1161
540.862,1171
541.351,1144
541.843,1172
542.333,1155
542.825,1168
543.314,1161
543.804,1166
544.296,1160
544.785,1175
545.277,1169
545.766,1166
546.256,1170
546.747,1172
547.237,1163
547.726,1186
548.218,1164
548.707,1177
549.198,1158
549.688,1161
550.177,1160
550.668,1164
551.158,1173
551.647,1172
552.136,1160
552.627,1161
553.116,1168
553.606,1172
554.097,1157
554.586,1167
555.075,1164
555.566,1147
556.055,1174
556.544,1164
557.033,1168
557.524,1171
558.013,1156
558.501,1164
558.99,1163
559.481,1179
559.97,1164
560.459,1165
560.947,1162
561.436,1176
561.927,1171
562.415,1164
562.904,1162
563.393,1180
563.881,1164
564.372,1175
564.86,1160
565.349,1151
565.837,1150
566.326,1173
566.814,1158
567.304,1152
567.793,1166
568.281,1170
568.769,1177
569.258,1157
569.746,1174
570.234,1168
570.722,1152
571.211,1166
571.701,1148
572.189,1160
572.677,1160
573.165,1176
573.653,1167
574.141,1164
574.629,1166
575.117,1152
575.605,1173
576.093,1170
576.581,1174
577.069,1166
577.557,1169
578.044,1160
578.532,1158
579.02,1154
579.508,1166
579.995,1154
580.483,1176
580.971,1158
581.458,1166
581.946,1180
582.433,1150
582.921,1164
583.409,1144
583.896,1157
584.383,1170
584.871,1167
585.358,1153
585.846,1173
586.333,1156
586.82,1154
587.306,1167
587.793,1166
588.28,1174
588.768,1146
589.255,1182
589.742,1164
590.229,1156
590.716,1149
591.203,1168
591.688,1157
592.175,1156
592.662,1168
593.149,1165
593.636,1162
594.123,1156
594.608,1160
595.095,1168
595.582,1168
596.069,1183
596.556,1167
597.043,1170
597.527,1169
598.014,1158
598.501,1170
598.987,1177
599.472,1164
599.959,1164
600.445,1172
600.932,1162
601.416,1164
601.903,1146
602.389,1134
602.876,1158
603.36,1159
603.847,1168
604.333,1140
604.82,1158
605.304,1153
605.79,1144
606.277,1163
606.761,1148
607.247,1172
607.733,1152
608.217,1162
608.704,1160
609.19,1144
609.674,1149
610.16,1148
610.646,1159
611.13,1162
611.616,1159
612.1,1160
612.586,1161
613.072,1152
613.556,1168
614.042,1163
614.526,1158
615.011,1165
615.497,1177
615.981,1156
616.467,1147
616.95,1160
617.436,1173
617.92,1167
618.405,1152
618.891,1138
619.375,1163
619.86,1152
620.344,1163
620.829,1171
621.313,1148
621.798,1155
622.282,1152
622.767,1170
623.25,1157
623.736,1162
624.219,1164
624.704,1166
625.188,1164
625.673,1150
626.156,1153
626.639,1152
627.125,1168
627.608,1152
628.093,1170
628.576,1141
629.061,1156
629.544,1154
630.027,1160
630.512,1151
630.995,1164
631.48,1174
631.963,1166
632.446,1154
632.931,1163
633.414,1151
633.898,1155
634.381,1160
634.864,1168
635.349,1152
635.831,1163
636.314,1170
636.799,1174
637.281,1160
637.764,1167
638.249,1159
638.731,1154
639.214,1162
639.696,1152
640.181,1151
640.663,1157
641.146,1166
641.63,1144
642.112,1152
642.595,1134
643.077,1154
643.561,1158
644.044,1152
644.526,1169
645.008,1161
645.492,1140
645.974,1172
646.456,1152
646.939,1174
647.421,1159
647.905,1152
648.387,1164
648.869,1168
649.351,1156
649.833,1171
650.317,1148
650.799,1154
651.281,1170
651.762,1161
652.244,1149
652.726,1136
653.208,1156
653.692,1152
654.173,1176
654.655,1157
655.137,1157
655.618,1164
656.1,1156
656.582,1176
657.063,1160
657.545,1174
658.028,1160
658.51,1163
658.991,1148
659.473,1162
659.954,1169
660.436,1153
660.917,1166
661.398,1144
661.88,1162
662.361,1150
662.842,1156
663.323,1162
663.805,1159
664.286,1148
664.767,1164
665.248,1161
665.729,1166
666.21,1162
666.691,1152
667.172,1170
667.654,1165
668.134,1166
668.615,1161
669.096,1163
669.577,1165
670.058,1150
670.539,1172
671.018,1153
671.499,1150
671.979,1176
672.46,1154
672.941,1165
673.422,1148
673.902,1150
674.383,1164
674.864,1161
675.344,1165
675.823,1160
676.303,1144
676.784,1161
677.264,1169
677.745,1152
678.225,1132
678.704,1174
679.184,1148
679.665,1158
680.145,1168
680.625,1150
681.104,1169
681.584,1174
682.064,1155
682.544,1162
683.025,1163
683.503,1168
683.983,1181
684.463,1154
684.943,1164
685.421,1159
685.901,1169
686.381,1167
686.861,1166
687.339,1169
687.819,1156
688.299,1160
688.779,1158
689.257,1160
689.737,1166
690.217,1156
690.694,1153
691.174,1153
691.654,1163
692.132,1144
692.611,1163
693.091,1175
693.569,1166
694.048,1161
694.528,1171
695.005,1148
695.485,1152
695.962,1160
696.442,1166
696.921,1157
697.399,1176
697.878,1161
698.356,1145
698.835,1173
699.314,1157
699.792,1150
700.271,1160
700.748,1143
701.227,1144
701.705,1164
702.184,1156
702.663,1166
703.14,1158
703.619,1158
704.096,1157
704.575,1159
705.052,1160
705.531,1156
706.008,1166
706.487,1157
706.964,1158
707.443,1159
707.92,1149
708.399,1158
708.876,1146
709.353,1169
709.831,1152
710.308,1130
710.787,1162
711.264,1156
711.742,1172
712.219,1158
712.698,1158
713.174,1166
713.651,1158
714.129,1162
714.606,1149
715.084,1144
715.561,1156
716.037,1158
716.516,1176
716.992,1164
717.468,1160
717.947,1155
718.423,1148
718.899,1146
719.378,1153
719.854,1154
720.33,1155
720.808,1158
721.285,1163
721.761,1185
722.239,1152
722.715,1159
723.191,1156
723.667,1166
724.145,1162
724.621,1162
725.097,1160
725.575,1176
726.051,1148
726.527,1152
727.003,1164
727.481,1157
727.956,1157
728.432,1171
728.908,1154
729.384,1156
729.862,1141
730.337,1160
730.813,1156
731.289,1155
731.764,1168
732.242,1168
732.717,1158
733.193,1164
733.668,1162
734.144,1143
734.619,1160
735.097,1153
735.572,1160
736.048,1147
736.523,1179
736.998,1154
737.474,1150
737.949,1154
738.424,1169
738.9,1146
739.377,1167
739.852,1155
740.327,1153
740.802,1166
741.278,1165
741.753,1149
742.228,1164
742.703,1161
743.178,1148
743.653,1164
744.128,1158
744.603,1160
745.078,1167
745.553,1172
746.027,1158
746.502,1156
746.977,1170
747.452,1170
747.927,1154
748.401,1160
748.876,1166
749.351,1148
749.826,1174
750.3,1160
750.775,1180
751.249,1156
751.724,1164
752.199,1158
752.673,1150
753.148,1161
753.62,1167
754.095,1170
754.569,1164
755.043,1161.92
755.518,1171.45
755.992,1171.48
756.466,1171.5
756.941,1167.06
757.415,1158.91
757.887,1172.01
758.362,1163.55
758.836,1167.77
759.31,1158.35
759.784,1168.56
760.258,1151.56
760.73,1159.01
761.204,1150.6
761.678,1173.72
762.152,1148.42
762.626,1161.44
763.098,1152.27
763.572,1147.33
764.046,1176.52
764.52,1142.11
764.994,1157.34
765.466,1174.51
765.94,1166.86
766.414,1155.22
766.887,1156.06
767.359,1151.89
767.833,1169.75
768.307,1146.4
768.778,1168.13
769.252,1159.22
769.726,1152.09
770.199,1149.35
770.671,1164.08
771.144,1160.26
771.618,1165.97
772.089,1151.03
772.563,1155.63
773.036,1152.74
773.508,1163.38
773.981,1153.11
774.455,1142.86
774.926,1153.65
775.399,1153.86
775.873,1160.59
776.344,1161.91
776.817,1163.39
777.288,1163.52
777.762,1160.57
778.235,1156.74
778.706,1159.42
779.179,1154.51
779.65,1158.16
780.123,1156.47
780.596,1163.18
781.068,1168.65
781.541,1160.78
782.012,1168.89
782.484,1176.13
782.955,1165.9
783.428,1173.69
783.899,1169.82
784.372,1168.84
784.843,1162.28
785.316,1168.1
785.789,1168.11
786.259,1164.76
786.732,1163.34
787.203,1160.97
787.674,1170.98
788.146,1159.78
788.617,1171.42
789.089,1175.93
789.56,1175.3
790.033,1180.07
790.503,1181.66
790.976,1174.92
791.446,1172.62
791.919,1176.6
792.389,1177.92
792.86,1167.94
793.332,1165.22
793.802,1150.99
794.275,1156.31
794.745,1160.73
795.215,1163.25
795.688,1150.53
796.158,1145.22
796.63,1151.19
797.1,1159.32
797.571,1153.93
798.043,1154.1
798.513,1142.51
798.983,1148.48
799.455,1144.21
799.925,1153.74
800.395,1158.36
800.867,1155.33
801.337,1131.93
801.807,1137.74
802.279,1140.56
802.749,1144.1
803.219,1143.18
803.254,1143
803.73,1143
804.206,1150
804.682,1146
805.157,1160
805.633,1154
806.109,1145
806.584,1144
807.06,1139
807.536,1149
808.011,1155
808.487,1142
808.962,1156
809.438,1166
809.913,1138
810.389,1145
810.864,1144
811.339,1137
811.815,1138
812.29,1143
812.766,1143
813.241,1162
813.716,1152
814.191,1140
814.667,1148
815.142,1154
815.617,1147
816.092,1138
816.567,1144
817.042,1151
817.517,1148
817.992,1148
818.467,1149
818.94,1128
819.415,1146
819.89,1160
820.365,1146
820.84,1157
821.315,1144
821.79,1148
822.265,1144
822.737,1151
823.212,1144
823.687,1146
824.162,1146
824.636,1147
825.111,1143
825.584,1143
826.058,1140
826.533,1134
827.007,1156
827.482,1139
827.954,1145
828.429,1153
828.903,1154
829.378,1136
829.852,1146
830.325,1142
830.799,1139
831.273,1136
831.748,1140
832.22,1146
832.694,1143
833.169,1150
833.643,1134
834.115,1150
834.589,1118
835.063,1145
835.535,1146
836.01,1158
836.484,1140
836.958,1144
837.43,1143
837.904,1152
838.378,1143
838.85,1154
839.323,1159
839.797,1142
840.269,1144
840.743,1155
841.217,1146
841.689,1136
842.163,1118
842.634,1144
843.108,1138
843.582,1146
844.053,1136
844.527,1150
845.001,1134
845.472,1158
845.946,1140
846.417,1136
846.891,1154
847.362,1134
847.836,1156
848.309,1150
848.781,1148
849.254,1140
849.726,1138
850.199,1140
850.67,1142
851.144,1157
851.615,1144
852.088,1132
852.559,1140
853.033,1138
853.504,1142
853.977,1146
854.448,1130
854.921,1154
855.392,1152
855.865,1159
856.336,1140
856.809,1150
857.28,1141
857.753,1159
858.224,1140
858.697,1146
859.168,1138
859.639,1137
860.112,1148
860.583,1148
861.055,1157
861.526,1148
861.997,1146
862.469,1144
862.94,1144
863.413,1146
863.883,1158
864.354,1146
864.827,1158
865.297,1150
865.77,1153
866.24,1154
866.711,1164
867.183,1158
867.654,1134
868.124,1134
868.597,1145
869.067,1156
869.537,1149
870.008,1154
870.48,1157
870.95,1147
871.42,1136
871.893,1151
872.363,1157
872.833,1143
873.305,1143
873.775,1142
874.245,1154
874.715,1141
875.188,1136
875.658,1145
876.128,1150
876.598,1146
877.068,1138
877.539,1157
878.009,1150
878.479,1161
878.949,1153
879.421,1146
879.891,1132
880.36,1146
880.83,1157
881.3,1162
881.77,1156
882.241,1152
882.711,1146
883.181,1158
883.65,1173
884.12,1145
884.589,1164
885.059,1161
885.53,1139
886,1164
886.469,1147
886.939,1146
887.408,1155
887.878,1152
888.347,1143
888.816,1152
889.286,1154
889.757,1144
890.226,1136
890.695,1156
891.165,1145
891.634,1147
892.103,1156
892.572,1164
893.041,1124
893.51,1138
893.98,1152
894.449,1156
894.918,1163
895.387,1142
895.856,1156
896.325,1155
896.794,1158
897.262,1140
897.731,1128
898.2,1154
898.669,1156
899.138,1158
899.607,1138
900.075,1149
900.544,1138
901.013,1153
901.481,1150
901.95,1159
902.419,1166
902.885,1158
903.354,1168
903.823,1136
904.291,1153
904.76,1145
905.228,1161
905.697,1158
906.165,1150
906.633,1154
907.1,1157
907.568,1146
908.036,1157
908.505,1155
908.973,1154
909.441,1161
909.91,1154
910.376,1140
910.844,1146
911.312,1152
911.78,1155
912.249,1150
912.717,1154
913.183,1155
913.651,1139
914.119,1157
914.587,1155
915.053,1168
915.521,1134
915.989,1150
916.457,1144
916.924,1144
917.39,1161
917.858,1156
918.326,1145
918.792,1146
919.26,1160
919.727,1142
920.195,1152
920.661,1163
921.128,1151
921.596,1171
922.062,1154
922.529,1151
922.997,1144
923.464,1161
923.93,1144
924.397,1155
924.865,1138
925.33,1159
925.798,1137
926.263,1162
926.731,1153
927.198,1162
927.663,1156
928.13,1150
928.598,1156
929.063,1150
929.53,1150
929.996,1159
930.463,1142
930.93,1158
931.395,1148
931.862,1156
932.327,1160
932.794,1160
933.259,1158
933.726,1159
934.193,1154
934.658,1157
935.125,1153
935.59,1161
936.057,1153
936.522,1156
936.989,1137
937.454,1154
937.92,1152
938.385,1153
938.852,1153
939.317,1162
939.783,1148
940.248,1153
940.715,1147
941.179,1148
941.646,1152
942.111,1134
942.575,1172
943.042,1166
943.506,1168
943.973,1142
944.437,1176
944.904,1148
945.368,1140
945.832,1164
946.299,1161
946.763,1150
947.229,1142
947.694,1166
948.158,1144
948.624,1166
949.089,1151
949.553,1147
950.019,1158
950.483,1160
950.949,1152
951.413,1145
951.877,1140
952.343,1146
952.807,1156
953.271,1145
953.735,1140
954.201,1144
954.665,1162
955.129,1163
955.595,1154
956.059,1156
956.523,1155
956.987,1152
957.453,1134
957.916,1154
958.38,1160
958.846,1166
959.309,1162
959.773,1157
960.237,1170
960.701,1164
961.166,1156
961.63,1160
962.093,1146
962.557,1174
963.022,1148
963.486,1146
963.949,1164
964.413,1160
964.876,1142
965.339,1158
965.805,1159
966.268,1148
966.732,1172
967.195,1147
967.658,1172
968.121,1161
968.585,1166
969.05,1141
969.513,1156
969.976,1166
970.439,1172
970.902,1168
971.365,1156
971.828,1160
972.292,1169
972.755,1158
973.218,1165
973.682,1160
974.145,1159
974.608,1152
975.071,1165
975.534,1157
975.997,1171
976.46,1151
976.923,1161
977.385,1162
977.848,1144
978.311,1163
978.773,1156
979.236,1171
979.699,1165
980.161,1158
980.624,1171
981.087,1169
981.549,1130
982.012,1164
982.474,1158
982.937,1162
983.399,1170
983.862,1146
984.324,1170
984.785,1163
985.247,1154
985.709,1154
986.172,1168
986.634,1166
987.096,1153
987.558,1165
988.021,1157
988.483,1154
988.945,1171
989.405,1162
989.867,1158
990.329,1152
990.792,1166
991.254,1166
991.716,1145
992.178,1169
992.638,1158
993.1,1165
993.562,1169
994.023,1158
994.485,1162
994.947,1163
995.407,1150
995.869,1171
996.331,1167
996.793,1170
997.252,1170
997.714,1160
998.176,1152
998.637,1147
999.099,1142
999.559,1158
1000.02,1159
1000.48,1164
1000.94,1156
1001.4,1165
1001.86,1163
1002.33,1172
1002.79,1157
1003.25,1164
1003.71,1142
1004.17,1162
1004.63,1148
1005.09,1150
1005.55,1167
1006.01,1171
1006.47,1150
1006.93,1168
1007.39,1180
1007.85,1158
1008.31,1168
1008.77,1164
1009.24,1160
1009.7,1159
1010.16,1152
1010.62,1168
1011.08,1168
1011.54,1159
1012,1160
1012.46,1149
1012.92,1164
1013.38,1168
1013.84,1180
1014.3,1162
1014.76,1160
1015.22,1158
1015.68,1154
1016.14,1164
1016.6,1168
1017.06,1165
1017.52,1158
1017.98,1166
1018.44,1164
1018.9,1152
1019.36,1171
1019.82,1158
1020.27,1164
1020.73,1160
1021.19,1170
1021.65,1158
1022.11,1152
1022.57,1180
1023.03,1173
1023.49,1154
1023.95,1176
1024.41,1161
1024.87,1166
1025.33,1164
1025.79,1166
1026.25,1173
1026.7,1173
1027.16,1163
1027.62,1162
1028.08,1164
1028.54,1165
1029,1157
1029.46,1159
1029.92,1150
1030.38,1172
1030.84,1161
1031.29,1161
1031.75,1169
1032.21,1150
1032.67,1155
1033.13,1154
1033.59,1162
1034.05,1159
1034.5,1166
1034.96,1162
1035.42,1162
1035.88,1164
1036.34,1167
1036.8,1151
1037.25,1161
1037.71,1159
1038.17,1170
1038.63,1164
1039.09,1148
1039.54,1152
1040,1174
1040.46,1152
1040.92,1173
1041.38,1166
1041.84,1159
1042.29,1165
1042.75,1164
1043.21,1156
1043.67,1164
1044.12,1156
1044.58,1164
1045.04,1172
1045.5,1169
1045.95,1160
1046.41,1176
1046.87,1169
1047.33,1158
1047.79,1160
1048.24,1176
1048.7,1152
1049.16,1167
1049.61,1158
1050.07,1170
1050.53,1175
1050.99,1166
1051.44,1174
1051.9,1152
1052.36,1168
1052.81,1162
1053.27,1166
1053.73,1181
1054.19,1160
1054.64,1169
1055.1,1173
1055.56,1174
1056.01,1162
1056.47,1163
1056.93,1146
1057.38,1172
1057.84,1176
1058.3,1174
1058.75,1161
1059.21,1152
1059.67,1170
1060.12,1160
1060.58,1173
1061.04,1160
1061.49,1163
1061.95,1167
1062.41,1158
1062.86,1186
1063.32,1175
1063.77,1181
1064.23,1157
1064.69,1164
1065.14,1184
1065.6,1182
1066.06,1172
1066.51,1172
1066.97,1169
1067.42,1154
1067.88,1172
1068.34,1163
1068.79,1173
1069.25,1148
1069.7,1181
1070.16,1174
1070.62,1164
1071.07,1182
1071.53,1172
1071.98,1154
1072.44,1170
1072.89,1180
1073.35,1184
1073.81,1170
1074.26,1167
1074.71,1169
1075.17,1161
1075.63,1176
1076.08,1176
1076.54,1169
1076.99,1154
1077.45,1188
1077.9,1170
1078.36,1170
1078.81,1172
1079.27,1162
1079.72,1177
1080.18,1171
1080.63,1166
1081.09,1168
1081.54,1158
1082,1160
1082.45,1184
1082.91,1189
1083.36,1168
1083.82,1203
1084.27,1168
1084.73,1189
1085.18,1158
1085.64,1174
1086.09,1187
1086.54,1171
1087,1168
1087.45,1178
1087.91,1178
1088.36,1176
1088.82,1189
1089.27,1184
1089.72,1174
1090.18,1172
1090.63,1174
1091.09,1166
1091.54,1178
1092,1168
1092.45,1160
1092.9,1174
1093.36,1168
1093.81,1178
1094.27,1174
1094.72,1180
1095.17,1181
1095.63,1174
1096.08,1175
1096.54,1170
1096.99,1181
1097.44,1168
1097.9,1182
1098.35,1156
1098.8,1164
1099.26,1173
1099.71,1164
1100.17,1174
1100.62,1188
1101.07,1166
1101.52,1168
1101.98,1184
1102.43,1177
1102.88,1176
1103.34,1184
1103.79,1194
1104.24,1192
1104.7,1187
1105.15,1185
1105.6,1182
1106.06,1176
1106.51,1170
1106.96,1196
1107.41,1181
1107.87,1175
1108.32,1186
1108.78,1170
1109.23,1192
1109.68,1179
1110.13,1170
1110.59,1173
1111.04,1146
1111.49,1187
1111.94,1175
1112.4,1154
1112.85,1178
1113.3,1179
1113.75,1178
1114.21,1174
1114.66,1184
1115.11,1172
1115.56,1176
1116.02,1189
1116.47,1162
1116.92,1174
1117.37,1192
1117.83,1182
1118.28,1182
1118.73,1166
1119.18,1176
1119.63,1159
1120.09,1170
1120.54,1181
1120.99,1176
1121.44,1172
1121.89,1164
1122.34,1171
1122.8,1191
1123.25,1180
1123.7,1160
1124.15,1179
1124.6,1179
1125.05,1169
1125.51,1182
1125.96,1168
1126.41,1174
1126.86,1189
1127.31,1154
1127.76,1171
1128.22,1185
1128.67,1174
1129.12,1171
1129.57,1164
1130.02,1156
1130.47,1180
1130.92,1168
1131.37,1173
1131.82,1175
1132.27,1174
1132.73,1173
1133.18,1163
1133.63,1178
1134.08,1169
1134.53,1168
1134.98,1159
1135.43,1176
1135.88,1173
1136.33,1170
1136.78,1165
1137.23,1179
1137.68,1177
1138.14,1161
1138.59,1176
1139.04,1174
1139.49,1175
1139.94,1163
1140.39,1187
1140.84,1172
1141.29,1164
1141.74,1177
1142.19,1156
1142.64,1187
1143.09,1171
1143.54,1170
1143.99,1175
1144.44,1166
1144.89,1168
1145.34,1168
1145.79,1160
1146.24,1177
1146.69,1160
1147.14,1166
1147.59,1182
1148.04,1175
1148.49,1178
1148.94,1173
1149.39,1173
1149.84,1167
1150.29,1168
1150.74,1162
1151.19,1177
1151.64,1188
1152.09,1183
1152.54,1160
1152.99,1167
1153.44,1171
1153.89,1186
1154.34,1145
1154.78,1174
1155.23,1176
1155.68,1155
1156.13,1172
1156.58,1172
1157.03,1161
1157.48,1157
1157.93,1150
1158.38,1168
1158.83,1164
1159.28,1175
1159.72,1175
1160.17,1152
1160.62,1167
1161.07,1174
1161.52,1167
1161.97,1166
1162.42,1164
1162.87,1168
1163.31,1181
1163.76,1171
1164.21,1160
1164.66,1166
1165.11,1168
1165.56,1183
1166.01,1179
1166.46,1164
1166.9,1158
1167.35,1162
1167.8,1174
1168.25,1168
1168.7,1165
1169.14,1166
1169.59,1156
1170.04,1173
1170.49,1171
1170.94,1156
1171.39,1166
1171.83,1169
1172.28,1166
1172.73,1167
1173.18,1178
1173.63,1158
1174.07,1164
1174.52,1174
1174.97,1176
1175.42,1173
1175.86,1158
1176.31,1164
1176.76,1172
1177.21,1168
1177.66,1158
1178.1,1162
1178.55,1174
1179,1170
1179.45,1166
1179.89,1156
1180.34,1176
1180.79,1162
1181.23,1172
1181.68,1172
1182.13,1173
1182.58,1168
1183.02,1160.05
1183.47,1168.84
1183.92,1173.69
1184.37,1171.67
1184.81,1154.51
1185.26,1171.08
1185.71,1162.33
1186.15,1183.12
1186.6,1169.61
1187.05,1162.15
1187.49,1174.87
1187.94,1162.16
1188.39,1172.26
1188.83,1185.07
1189.28,1183.3
1189.73,1169.67
1190.17,1156.81
1190.62,1167.74
1191.07,1183.5
1191.51,1162.18
1191.96,1169
1192.41,1159.6
1192.85,1169.82
1193.3,1171.51
1193.75,1179.1
1194.19,1169.95
1194.64,1170.03
1195.09,1168.15
1195.53,1173.39
1195.98,1179.33
1196.42,1171.03
1196.87,1167.93
1197.32,1165.86
1197.76,1154.91
1198.21,1168.27
1198.65,1170.75
1199.1,1171.01
1199.55,1167.24
1199.99,1168.51
1200.44,1169.63
1200.88,1173.99
1201.33,1166.46
1201.78,1162.74
1202.22,1166.49
1202.67,1168.03
1203.11,1164.04
1203.56,1171.87
1204,1163.47
1204.45,1154.88
1204.9,1170.56
1205.34,1160.95
1205.79,1153.53
1206.23,1169.1
1206.68,1164.15
1207.12,1170.18
1207.57,1173.11
1208.01,1166.96
1208.46,1165.4
1208.9,1173.51
1209.35,1166.37
1209.79,1163.2
1210.24,1158.93
1210.68,1161.89
1211.13,1167.86
1211.57,1164.61
1212.02,1172.74
1212.46,1169.59
1212.91,1162.62
1213.35,1164.62
1213.8,1170.47
1214.24,1167.26
1214.69,1164.86
1215.13,1160.81
1215.58,1155.57
1216.02,1163.11
1216.47,1152.95
1216.91,1151.04
1217.36,1161.15
1217.8,1165.51
1218.25,1163.99
1218.69,1156.48
1219.13,1153.76
1219.58,1163.63
1220.02,1165.43
1220.47,1165.27
1220.91,1170.1
1221.36,1165.61
1221.8,1175.18
1222.24,1161.46
1222.69,1172.52
1223.13,1161.24
1223.58,1155.83
1224.02,1166.11
1224.46,1156.09
1224.91,1158.06
1225.35,1171.04
1225.8,1160.54
1226.24,1156.78
1226.68,1145.16
1227.13,1151.78
1227.52,1156
1227.97,1163
1228.42,1159
1228.87,1164
1229.31,1171
1229.76,1175
1230.21,1146
1230.66,1136
1231.11,1164
1231.56,1162
1232.01,1152
1232.46,1156
1232.91,1170
1233.35,1165
1233.8,1155
1234.25,1170
1234.7,1144
1235.15,1152
1235.6,1162
1236.05,1164
1236.49,1162
1236.94,1162
1237.39,1154
1237.84,1146
1238.29,1161
1238.74,1174
1239.18,1146
1239.63,1159
1240.08,1164
1240.53,1172
1240.98,1186
1241.43,1178
1241.87,1170
1242.32,1166
1242.77,1182
1243.22,1156
1243.67,1160
1244.11,1162
1244.56,1172
1245.01,1168
1245.46,1169
1245.91,1168
1246.35,1178
1246.8,1152
1247.25,1167
1247.7,1170
1248.14,1150
1248.59,1172
1249.04,1187
1249.49,1172
1249.93,1150
1250.38,1178
1250.83,1171
1251.28,1176
1251.72,1162
1252.17,1160
1252.62,1167
1253.07,1173
1253.51,1182
1253.96,1161
1254.41,1171
1254.86,1165
1255.3,1163
1255.75,1176
1256.2,1150
1256.64,1164
1257.09,1171
1257.54,1167
1257.98,1175
1258.43,1170
1258.88,1169
1259.32,1168
1259.77,1162
1260.22,1163
1260.66,1178
1261.11,1173
1261.56,1166
1262.01,1160
1262.45,1144
1262.9,1166
1263.34,1173
1263.79,1165
1264.24,1159
1264.68,1164
1265.13,1163
1265.58,1170
1266.02,1169
1266.47,1172
1266.92,1180
1267.36,1144
1267.81,1159
1268.25,1168
1268.7,1158
1269.15,1163
1269.59,1178
1270.04,1169
1270.48,1174
1270.93,1167
1271.38,1166
1271.82,1182
1272.27,1162
1272.71,1194
1273.16,1190
1273.6,1193
1274.05,1197
1274.5,1198
1274.94,1191
1275.39,1192
1275.83,1190
1276.28,1192
1276.72,1168
1277.17,1193
1277.61,1181
1278.06,1166
1278.51,1174
1278.95,1176
1279.4,1170
1279.84,1174
1280.29,1167
1280.73,1172
1281.18,1170
1281.62,1142
1282.07,1176
1282.51,1174
1282.96,1166
1283.4,1151
1283.85,1161
1284.29,1170
1284.74,1168
1285.18,1178
1285.63,1170
1286.07,1162
1286.52,1160
1286.96,1166
1287.41,1166
1287.85,1171
1288.3,1155
1288.74,1164
1289.19,1175
1289.63,1156
1290.07,1175
1290.52,1158
1290.96,1181
1291.41,1160
1291.85,1168
1292.3,1158
1292.74,1158
1293.19,1177
1293.63,1161
1294.07,1160
1294.52,1164
1294.96,1166
1295.41,1164
1295.85,1158
1296.3,1161
1296.74,1165
1297.18,1172
1297.63,1173
1298.07,1170
1298.51,1162
1298.96,1150
1299.4,1159
1299.85,1168
1300.29,1152
1300.73,1155
1301.18,1160
1301.62,1156
1302.06,1164
1302.51,1159
1302.95,1186
1303.39,1162
1303.84,1168
1304.28,1179
1304.72,1166
1305.17,1142
1305.61,1154
1306.05,1162
1306.5,1162
1306.94,1176
1307.38,1179
1307.83,1164
1308.27,1171
1308.71,1172
1309.16,1175
1309.6,1154
1310.04,1165
1310.49,1164
1310.93,1154
1311.37,1169
1311.82,1160
1312.26,1162
1312.7,1163
1313.14,1171
1313.59,1152
1314.03,1155
1314.47,1147
1314.92,1156
1315.36,1165
1315.8,1164
1316.24,1157
1316.69,1138
1317.13,1164
1317.57,1164
1318.01,1172
1318.46,1173
1318.9,1159
1319.34,1169
1319.78,1160
1320.22,1178
1320.67,1184
1321.11,1161
1321.55,1170
1321.99,1162
1322.44,1180
1322.88,1182
1323.32,1164
1323.76,1145
1324.2,1165
1324.64,1166
1325.09,1183
1325.53,1167
1325.97,1149
1326.41,1165
1326.85,1174
1327.3,1173
1327.74,1174
1328.18,1150
1328.62,1177
1329.06,1168
1329.51,1166
1329.95,1166
1330.39,1159
1330.83,1160
1331.27,1176
1331.71,1166
1332.15,1162
1332.6,1166
1333.04,1164
1333.48,1161
1333.92,1171
1334.36,1156
1334.8,1157
1335.24,1155
1335.68,1150
1336.12,1165
1336.57,1165
1337.01,1166
1337.45,1159
1337.89,1166
1338.33,1167
1338.77,1166
1339.21,1186
1339.65,1179
1340.09,1166
1340.53,1167
1340.98,1152
1341.42,1165
1341.86,1161
1342.3,1185
1342.74,1178
1343.18,1169
1343.62,1164
1344.06,1170
1344.5,1154
1344.94,1160
1345.38,1160
1345.82,1165
1346.26,1165
1346.7,1160
1347.14,1177
1347.58,1152
1348.02,1158
1348.46,1168
1348.9,1177
1349.34,1164
1349.78,1161
1350.22,1154
1350.66,1166
1351.1,1156
1351.54,1158
1351.98,1163
1352.42,1170
1352.86,1169
1353.3,1175
1353.74,1161
1354.18,1183
1354.62,1169
1355.06,1158
1355.5,1160
1355.94,1175
1356.38,1152
1356.82,1154
1357.26,1164
1357.7,1170
1358.14,1179
1358.58,1164
1359.02,1168
1359.46,1180
1359.9,1178
1360.33,1182
1360.77,1169
1361.21,1168
1361.65,1175
1362.09,1178
1362.53,1170
1362.97,1176
1363.41,1163
1363.85,1164
1364.29,1158
1364.73,1173
1365.16,1183
1365.6,1177
1366.04,1175
1366.48,1201
1366.92,1165
1367.36,1154
1367.8,1172
1368.24,1152
1368.68,1156
1369.11,1164
1369.55,1169
1369.99,1176
1370.43,1171
1370.87,1178
1371.31,1166
1371.75,1173
1372.18,1173
1372.62,1170
1373.06,1173
1373.5,1161
1373.94,1164
1374.37,1165
1374.81,1160
1375.25,1170
1375.69,1173
1376.13,1158
1376.57,1174
1377,1163
1377.44,1167
1377.88,1160
1378.32,1169
1378.76,1166
1379.19,1164
1379.63,1165
1380.07,1162
1380.51,1164
1380.94,1162
1381.38,1128
1381.82,1168
1382.26,1168
1382.7,1157
1383.13,1168
1383.57,1175
1384.01,1171
1384.44,1144
1384.88,1175
1385.32,1152
1385.76,1162
1386.2,1166
1386.63,1166
1387.07,1171
1387.51,1160
1387.94,1158
1388.38,1170
1388.82,1171
1389.26,1161
1389.69,1170
1390.13,1152
1390.57,1161
1391,1166
1391.44,1158
1391.88,1170
1392.31,1178
1392.75,1172
1393.19,1176
1393.62,1158
1394.06,1168
1394.5,1156
1394.94,1171
1395.37,1171
1395.81,1167
1396.24,1158
1396.68,1167
1397.12,1152
1397.56,1152
1397.99,1173
1398.43,1158
1398.86,1175
1399.3,1176
1399.74,1167
1400.17,1169
1400.61,1161
1401.05,1156
1401.48,1163
1401.92,1170
1402.35,1160
1402.79,1156
1403.23,1171
1403.66,1158
1404.1,1152
1404.53,1173
1404.97,1174
1405.41,1166
1405.84,1160
1406.28,1158
1406.71,1174
1407.15,1154
1407.59,1161
1408.02,1155
1408.46,1164
1408.89,1176
1409.33,1160
1409.76,1172
1410.2,1163
1410.64,1162
1411.07,1166
1411.51,1168
1411.94,1168
1412.38,1164
1412.81,1174
1413.25,1161
1413.68,1164
1414.12,1191
1414.55,1166
1414.99,1176
1415.42,1164
1415.86,1171
1416.29,1171
1416.73,1159
1417.16,1160
1417.6,1167
1418.03,1173
1418.47,1158
1418.9,1172
1419.34,1187
1419.77,1155
1420.21,1174
1420.64,1162
1421.08,1173
1421.51,1170
1421.95,1160
1422.38,1170
1422.82,1173
1423.25,1153
1423.69,1167
1424.12,1165
1424.56,1174
1424.99,1158
1425.42,1178
1425.86,1163
1426.29,1171
1426.73,1161
1427.16,1168
1427.59,1172
1428.03,1178
1428.46,1166
1428.9,1179
1429.33,1176
1429.77,1150
1430.2,1163
1430.63,1172
1431.07,1176
1431.5,1173
1431.94,1166
1432.37,1176
1432.8,1164
1433.24,1178
1433.67,1172
1434.1,1173
1434.54,1157
1434.97,1182
1435.41,1174
1435.84,1159
1436.27,1172
1436.71,1165
1437.14,1172
1437.57,1170
1438.01,1173
1438.44,1167
1438.88,1164
1439.31,1158
1439.74,1158
1440.17,1159
1440.61,1165
1441.04,1182
1441.47,1167
1441.91,1156
1442.34,1180
1442.77,1178
1443.21,1178
1443.64,1168
1444.07,1164
1444.51,1168
1444.94,1148
1445.37,1180
1445.8,1163
1446.24,1172
1446.67,1176
1447.1,1162
1447.54,1157
1447.97,1176
1448.4,1168
1448.83,1161
1449.27,1170
1449.7,1176
1450.13,1172
1450.57,1172
1451,1171
1451.43,1171.67
1451.86,1171.56
1452.3,1171.41
1452.73,1171.54
1453.16,1171.5
1453.59,1171.48
1454.02,1171.51
1454.46,1171.5
1454.89,1174.37
1455.32,1174.08
1455.75,1183
1456.18,1170
1456.62,1164
1457.05,1176
1457.48,1169
1457.91,1176
1458.34,1176
1458.78,1176
1459.21,1186
1459.64,1175
1460.07,1166
1460.5,1166
1460.94,1174
1461.37,1172
1461.8,1178
1462.23,1173
1462.66,1166
1463.09,1172
1463.53,1160
1463.96,1159
1464.39,1168
1464.82,1170
1465.25,1170
1465.68,1168
1466.12,1152
1466.55,1174
1466.98,1177
1467.41,1178
1467.84,1167
1468.27,1156
1468.7,1156
1469.13,1183
1469.56,1171
1470,1174
1470.43,1170
1470.86,1180
1471.29,1168
1471.72,1177
1472.15,1185
1472.58,1172
1473.01,1144
1473.44,1165
1473.87,1162
1474.31,1175
1474.74,1177
1475.17,1144
1475.6,1172
1476.03,1172
1476.46,1180
1476.89,1168
1477.32,1172
1477.75,1165
1478.18,1168
1478.61,1174
1479.04,1168
1479.47,1162
1479.9,1170
1480.33,1177
1480.76,1180
1481.19,1174
1481.62,1180
1482.05,1168
1482.48,1168
1482.91,1160
1483.34,1152
1483.77,1177
1484.2,1173
1484.63,1158
1485.06,1161
1485.49,1187
1485.92,1181
1486.35,1176
1486.78,1162
1487.21,1184
1487.64,1180
1488.07,1168
1488.5,1170
1488.93,1186
1489.36,1182
1489.79,1177
1490.22,1158
1490.65,1190
1491.08,1146
1491.51,1162
1491.94,1164
1492.37,1158
1492.8,1165
1493.23,1166
1493.66,1176
1494.09,1180
1494.51,1176
1494.94,1181
1495.37,1169
1495.8,1167
1496.23,1178
1496.66,1166
1497.09,1170
1497.52,1146
1497.95,1162
1498.38,1162
1498.81,1177
1499.23,1166
1499.66,1177
