Raman Shift (1/cm),Intensity (Counts)
302.468,1406
302.977,1398
303.486,1418
303.995,1441
304.503,1417
305.012,1412
305.521,1411
306.03,1448
306.538,1420
307.047,1430
307.556,1436
308.064,1403
308.573,1422
309.082,1380
309.59,1420
310.097,1416
310.605,1417
311.114,1430
311.622,1406
312.13,1428
312.639,1416
313.147,1413
313.655,1424
314.164,1418
314.672,1448
315.18,1440
315.686,1423
316.195,1427
316.703,1408
317.211,1423
317.719,1441
318.227,1386
318.735,1420
319.241,1414
319.749,1429
320.257,1409
320.765,1437
321.273,1428
321.781,1447
322.287,1398
322.794,1430
323.302,1410
323.81,1415
324.318,1407
324.823,1440
325.331,1406
325.839,1420
326.346,1412
326.852,1426
327.359,1417
327.867,1406
328.374,1421
328.88,1429
329.387,1442
329.895,1418
330.402,1420
330.907,1428
331.415,1425
331.922,1409
332.429,1446
332.935,1434
333.442,1421
333.949,1428
334.454,1437
334.961,1432
335.468,1428
335.973,1441
336.481,1444
336.988,1423
337.493,1426
338,1396
338.506,1423
339.011,1425
339.518,1441
340.023,1419
340.53,1442
341.037,1425
341.541,1435
342.048,1416
342.555,1449
343.06,1471
343.566,1398
344.071,1450
344.577,1441
345.082,1444
345.589,1394
346.095,1411
346.6,1453
347.106,1462
347.61,1426
348.117,1426
348.621,1430
349.128,1440
349.632,1444
350.138,1459
350.642,1424
351.149,1428
351.653,1426
352.159,1445
352.663,1420
353.169,1442
353.673,1445
354.179,1434
354.683,1408
355.189,1411
355.693,1426
356.199,1439
356.703,1418
357.209,1447
357.713,1454
358.219,1449
358.723,1433
359.226,1447
359.732,1424
360.236,1426
360.742,1447
361.245,1434
361.751,1423
362.255,1434
362.758,1452
363.264,1423
363.767,1431
364.271,1482
364.776,1430
365.28,1442
365.785,1446
366.289,1428
366.792,1426
367.297,1440
367.801,1434
368.304,1462
368.809,1452
369.312,1424
369.815,1440
370.321,1423
370.824,1441
371.327,1451
371.83,1452
372.335,1424
372.838,1444
373.341,1446
373.846,1448
374.349,1480
374.852,1462
375.355,1452
375.86,1455
376.362,1469
376.865,1449
377.368,1465
377.873,1454
378.376,1469
378.878,1476
379.381,1488
379.883,1434
380.388,1479
380.891,1460
381.393,1448
381.896,1456
382.398,1475
382.903,1476
383.405,1460
383.908,1475
384.41,1457
384.912,1488
385.415,1466
385.919,1509
386.421,1485
386.923,1489
387.426,1490
387.928,1486
388.43,1511
388.932,1507
389.434,1522
389.938,1529
390.44,1518
390.942,1548
391.444,1546
391.946,1543
392.448,1550
392.95,1552
393.452,1604
393.954,1549
394.456,1614
394.958,1578
395.459,1604
395.961,1614
396.463,1609
396.965,1647
397.466,1665
397.968,1668
398.469,1633
398.971,1686
399.473,1708
399.974,1641
400.476,1666
400.977,1683
401.479,1706
401.98,1689
402.481,1668
402.983,1628
403.484,1625
403.985,1714
404.487,1606
404.988,1632
405.489,1659
405.99,1649
406.491,1649
406.993,1599
407.494,1608
407.995,1570
408.496,1574
408.995,1579
409.496,1549
409.997,1532
410.498,1538
410.999,1522
411.5,1520
412,1500
412.501,1491
413.002,1505
413.501,1507
414.002,1525
414.502,1468
415.003,1456
415.504,1486
416.004,1488
416.503,1496
417.004,1456
417.504,1475
418.005,1483
418.505,1466
419.004,1470
419.504,1478
420.004,1473
420.505,1464
421.003,1474
421.504,1448
422.004,1468
422.504,1488
423.004,1486
423.503,1494
424.003,1476
424.503,1466
425.001,1472
425.501,1459
426.001,1456
426.501,1473
426.999,1457
427.499,1483
427.999,1476
428.497,1482
428.997,1484
429.497,1482
429.995,1444
430.495,1462
430.995,1486
431.493,1442
431.992,1449
432.492,1456
432.99,1466
433.489,1462
433.989,1466
434.487,1438
434.986,1476
435.486,1493
435.983,1491
436.483,1496
436.98,1498
437.48,1482
437.977,1454
438.477,1500
438.976,1511
439.473,1496
439.973,1529
440.47,1543
440.969,1585
441.467,1564
441.966,1567
442.465,1558
442.962,1583
443.461,1590
443.958,1582
444.457,1521
444.954,1535
445.453,1526
445.95,1502
446.449,1488
446.946,1478
447.445,1482
447.942,1494
448.441,1472
448.938,1483
449.437,1496
449.933,1487
450.43,1446
450.929,1442
451.426,1470
451.924,1470
452.421,1452
452.92,1472
453.416,1464
453.913,1489
454.411,1454
454.908,1477
455.406,1464
455.903,1456
456.399,1472
456.897,1461
457.394,1466
457.892,1471
458.388,1470
458.885,1459
459.383,1476
459.879,1478
460.375,1439
460.874,1496
461.37,1464
461.866,1494
462.364,1466
462.86,1454
463.356,1502
463.854,1493
464.35,1489
464.846,1480
465.342,1468
465.84,1497
466.336,1469
466.832,1494
467.329,1476
467.825,1462
468.321,1502
468.817,1470
469.314,1480
469.81,1493
470.306,1518
470.801,1497
471.297,1502.67
471.795,1505.89
472.29,1501.85
472.786,1503.47
473.281,1503.74
473.779,1503.02
474.274,1507.06
474.769,1504.36
475.265,1518
475.76,1490
476.256,1424
476.753,1468
477.248,1499
477.743,1490
478.239,1466
478.734,1502
479.229,1507
479.724,1470
480.221,1457
480.716,1458
481.211,1481
481.706,1482
482.201,1480
482.696,1495
483.191,1467
483.686,1470
484.181,1514
484.676,1444
485.171,1454
485.668,1487
486.163,1462
486.657,1480
487.152,1463
487.647,1494
488.141,1495
488.636,1474
489.131,1482
489.625,1491
490.12,1497
490.614,1476
491.109,1460
491.603,1473
492.098,1453
492.592,1481
493.087,1491
493.581,1489
494.076,1476
494.57,1491
495.064,1497
495.559,1468
496.053,1476
496.547,1494
497.041,1456
497.533,1483
498.027,1503
498.522,1503
499.016,1468
499.51,1495
500.004,1489
500.498,1497
500.992,1467
501.486,1514
501.98,1450
502.472,1501
502.965,1486
503.459,1497
503.953,1479
504.447,1492
504.941,1479
505.434,1487
505.926,1512
506.42,1496
506.913,1478
507.407,1466
507.901,1468
508.394,1487
508.886,1507
509.379,1520
509.873,1507
510.366,1498
510.86,1502
511.351,1466
511.845,1524
512.338,1486
512.831,1500
513.323,1514
513.816,1484
514.309,1481
514.802,1519
515.294,1485
515.787,1506
516.28,1496
516.771,1504
517.264,1497
517.757,1541
518.25,1480
518.741,1535
519.234,1517
519.727,1505
520.218,1492
520.711,1513
521.204,1502
521.695,1492
522.188,1472
522.681,1514
523.171,1502
523.664,1498
524.157,1498
524.647,1521
525.14,1537
525.631,1542
526.123,1506
526.616,1549
527.107,1567
527.599,1512
528.09,1516
528.582,1568
529.075,1561
529.565,1576
530.057,1587
530.548,1628
531.04,1622
531.53,1669
532.023,1663
532.515,1719
533.005,1779
533.497,1824
533.988,1850
534.48,1870
534.97,1934
535.462,1926
535.952,1838
536.444,1800
536.934,1765
537.426,1714
537.916,1684
538.408,1636
538.898,1647
539.388,1600
539.88,1636
540.37,1594
540.862,1645
541.351,1632
541.843,1624
542.333,1675
542.825,1675
543.314,1732
543.804,1810
544.296,1796
544.785,1916
545.277,1966
545.766,2130
546.256,2218
546.747,2202
547.237,2187
547.726,2134
548.218,2042
548.707,1998
549.198,1893
549.688,1839
550.177,1774
550.668,1736
551.158,1679
551.647,1657
552.136,1595
552.627,1625
553.116,1592
553.606,1587
554.097,1553
554.586,1546
555.075,1560
555.566,1582
556.055,1540
556.544,1530
557.033,1526
557.524,1534
558.013,1531
558.501,1500
558.99,1528
559.481,1504
559.97,1500
560.459,1523
560.947,1533
561.436,1487
561.927,1514
562.415,1536
562.904,1518
563.393,1512
563.881,1560
564.372,1544
564.86,1537
565.349,1530
565.837,1541
566.326,1545
566.814,1568
567.304,1560
567.793,1514
568.281,1538
568.769,1512
569.258,1521
569.746,1517
570.234,1515
570.722,1508
571.211,1548
571.701,1504
572.189,1514
572.677,1521
573.165,1515
573.653,1514
574.141,1522
574.629,1522
575.117,1523
575.605,1543
576.093,1533
576.581,1514
577.069,1509
577.557,1519
578.044,1502
578.532,1509
579.02,1521
579.508,1548
579.995,1486
580.483,1495
580.971,1472
581.458,1536
581.946,1517
582.433,1497
582.921,1536
583.409,1536
583.896,1529
584.383,1521
584.871,1512
585.358,1505
585.846,1555
586.333,1525
586.82,1523
587.306,1523
587.793,1550
588.28,1553
588.768,1530
589.255,1605
589.742,1536
590.229,1554
590.716,1548
591.203,1587
591.688,1585
592.175,1607
592.662,1595
593.149,1650
593.636,1665
594.123,1682
594.608,1738
595.095,1784
595.582,1924
596.069,2070
596.556,2307
597.043,2465
597.527,2558
598.014,2469
598.501,2212
598.987,1984
599.472,1843
599.959,1759
600.445,1634
600.932,1647
601.416,1596
601.903,1595
602.389,1559
602.876,1561
603.36,1562
603.847,1525
604.333,1538
604.82,1516
605.304,1504
605.79,1512
606.277,1500
606.761,1484
607.247,1512
607.733,1508
608.217,1494
608.704,1517
609.19,1513
609.674,1522
610.16,1513
610.646,1512
611.13,1538
611.616,1531
612.1,1513
612.586,1522
613.072,1478
613.556,1510
614.042,1534
614.526,1495
615.011,1510
615.497,1504
615.981,1522
616.467,1504
616.95,1495
617.436,1514
617.92,1480
618.405,1508
618.891,1506
619.375,1485
619.86,1494
620.344,1511
620.829,1495
621.313,1515
621.798,1494
622.282,1509
622.767,1484
623.25,1488
623.736,1501
624.219,1518
624.704,1533
625.188,1492
625.673,1497
626.156,1496
626.639,1484
627.125,1454
627.608,1514
628.093,1487
628.576,1488
629.061,1492
629.544,1489
630.027,1498
630.512,1498
630.995,1520
631.48,1510
631.963,1501
632.446,1490
632.931,1476
633.414,1504
633.898,1482
634.381,1512
634.864,1498
635.349,1489
635.831,1479
636.314,1495
636.799,1511
637.281,1519
637.764,1496
638.249,1506
638.731,1536
639.214,1481
639.696,1477
640.181,1517
640.663,1484
641.146,1507
641.63,1509
642.112,1503
642.595,1515
643.077,1504
643.561,1489
644.044,1521
644.526,1519
645.008,1515
645.492,1519
645.974,1506
646.456,1487
646.939,1519
647.421,1487
647.905,1496
648.387,1517
648.869,1524
649.351,1498
649.833,1497
650.317,1524
650.799,1524
651.281,1470
651.762,1487
652.244,1507
652.726,1520
653.208,1514
653.692,1520
654.173,1486
654.655,1512
655.137,1518
655.618,1516
656.1,1514
656.582,1483
657.063,1520
657.545,1506
658.028,1504
658.51,1529
658.991,1524
659.473,1530
659.954,1537
660.436,1511
660.917,1522
661.398,1497
661.88,1516
662.361,1534
662.842,1519
663.323,1496
663.805,1509
664.286,1520
664.767,1530
665.248,1507
665.729,1516
666.21,1516
666.691,1521
667.172,1521
667.654,1531
668.134,1502
668.615,1526
669.096,1536
669.577,1529
670.058,1486
670.539,1511
671.018,1516
671.499,1520
671.979,1554
672.46,1516
672.941,1537
673.422,1500
673.902,1534
674.383,1527
674.864,1539
675.344,1517
675.823,1540
676.303,1506
676.784,1520
677.264,1494
677.745,1516
678.225,1521
678.704,1528
679.184,1525
679.665,1528
680.145,1533
680.625,1552
681.104,1540
681.584,1506
682.064,1541
682.544,1507
683.025,1550
683.503,1504
683.983,1525
684.463,1528
684.943,1553
685.421,1550
685.901,1516
686.381,1556
686.861,1553
687.339,1516
687.819,1526
688.299,1574
688.779,1527
689.257,1546
689.737,1516
690.217,1544
690.694,1521
691.174,1507
691.654,1558
692.132,1546
692.611,1550
693.091,1521
693.569,1508
694.048,1540
694.528,1528
695.005,1548
695.485,1566
695.962,1524
696.442,1524
696.921,1541
697.399,1527
697.878,1544
698.356,1552
698.835,1529
699.314,1524
699.792,1534
700.271,1526
700.748,1556
701.227,1568
701.705,1537
702.184,1530
702.663,1532
703.14,1528
703.619,1575
704.096,1517
704.575,1524
705.052,1536
705.531,1563
706.008,1522
706.487,1538
706.964,1556
707.443,1562
707.92,1574
708.399,1494
708.876,1534
709.353,1529
709.831,1517
710.308,1527
710.787,1508
711.264,1519
711.742,1543
712.219,1539
712.698,1526
713.174,1500
713.651,1509
714.129,1503
714.606,1525
715.084,1507
715.561,1522
716.037,1523
716.516,1524
716.992,1526
717.468,1508
717.947,1545
718.423,1529
718.899,1553
719.378,1529
719.854,1527
720.33,1520
720.808,1557
721.285,1528
721.761,1540
722.239,1518
722.715,1509
723.191,1531
723.667,1519
724.145,1528
724.621,1530
725.097,1555
725.575,1532
726.051,1533
726.527,1530
727.003,1537
727.481,1531
727.956,1527
728.432,1518
728.908,1508
729.384,1532
729.862,1534
730.337,1545
730.813,1545
731.289,1527
731.764,1512
732.242,1526
732.717,1536
733.193,1516
733.668,1550
734.144,1532
734.619,1518
735.097,1534
735.572,1566
736.048,1526
736.523,1536
736.998,1550
737.474,1535
737.949,1544
738.424,1556
738.9,1536
739.377,1569
739.852,1540
740.327,1530
740.802,1506
741.278,1538
741.753,1567
742.228,1556
742.703,1550
743.178,1517
743.653,1526
744.128,1553
744.603,1572
745.078,1553
745.553,1556
746.027,1560
746.502,1546
746.977,1558
747.452,1553
747.927,1584
748.401,1564
748.876,1563
749.351,1603
749.826,1561
750.3,1599
750.775,1571
751.249,1559
751.724,1578
752.199,1601
752.673,1555
753.148,1607
753.62,1580
754.095,1556
754.569,1568
755.043,1589.64
755.518,1586.79
755.992,1590.86
756.466,1559.88
756.941,1556.8
757.415,1552.33
757.887,1581.21
758.362,1596.67
758.836,1577.73
759.31,1573.73
759.784,1592.05
760.258,1577.11
760.73,1590.54
761.204,1573.46
761.678,1606.63
762.152,1564.14
762.626,1584.33
763.098,1565.11
763.572,1573.03
764.046,1594.69
764.52,1566.93
764.994,1558.25
765.466,1577.77
765.94,1581.14
766.414,1592.49
766.887,1594.12
767.359,1580.3
767.833,1599.86
768.307,1596.95
768.778,1597.11
769.252,1593.71
769.726,1590.61
770.199,1612.46
770.671,1630.88
771.144,1611.26
771.618,1597.29
772.089,1592.6
772.563,1619.09
773.036,1596.45
773.508,1615.46
773.981,1619.56
774.455,1587.48
774.926,1629.86
775.399,1621.42
775.873,1633.86
776.344,1645.89
776.817,1640.19
777.288,1687.49
777.762,1674.91
778.235,1733.84
778.706,1749.2
779.179,1800.32
779.65,1866.13
780.123,1948.92
780.596,2080.07
781.068,2235.89
781.541,2367.87
782.012,2526.02
782.484,2618.94
782.955,2631.67
783.428,2554.46
783.899,2480.77
784.372,2368.74
784.843,2296.33
785.316,2280.68
785.789,2247.7
786.259,2258.76
786.732,2345.85
787.203,2423.61
787.674,2524.35
788.146,2647.82
788.617,2790.51
789.089,2920.08
789.56,3031.15
790.033,3146.94
790.503,3228.88
790.976,3231.57
791.446,3191.03
791.919,3018
792.389,2862.72
792.86,2651.14
793.332,2511.4
793.802,2365.31
794.275,2259.44
794.745,2173.19
795.215,2067.17
795.688,1995.39
796.158,1958.55
796.63,1905.29
797.1,1871.68
797.571,1840.1
798.043,1783.37
798.513,1769.04
798.983,1759.53
799.455,1724.31
799.925,1715.77
800.395,1713.6
800.867,1686.98
801.337,1700.13
801.807,1676.91
802.279,1661.13
802.749,1635.1
803.219,1652.83
803.254,1654
803.73,1670
804.206,1623
804.682,1626
805.157,1654
805.633,1596
806.109,1612
806.584,1645
807.06,1627
807.536,1630
808.011,1631
808.487,1621
808.962,1592
809.438,1629
809.913,1629
810.389,1622
810.864,1591
811.339,1594
811.815,1611
812.29,1600
812.766,1612
813.241,1574
813.716,1603
814.191,1598
814.667,1578
815.142,1580
815.617,1560
816.092,1566
816.567,1598
817.042,1571
817.517,1571
817.992,1556
818.467,1578
818.94,1577
819.415,1533
819.89,1562
820.365,1561
820.84,1556
821.315,1506
821.79,1557
822.265,1550
822.737,1543
823.212,1510
823.687,1536
824.162,1508
824.636,1530
825.111,1496
825.584,1500
826.058,1492
826.533,1492
827.007,1508
827.482,1528
827.954,1518
828.429,1518
828.903,1517
829.378,1537
829.852,1524
830.325,1510
830.799,1532
831.273,1526
831.748,1514
832.22,1503
832.694,1516
833.169,1490
833.643,1470
834.115,1504
834.589,1511
835.063,1489
835.535,1513
836.01,1480
836.484,1511
836.958,1502
837.43,1522
837.904,1490
838.378,1498
838.85,1518
839.323,1513
839.797,1478
840.269,1510
840.743,1488
841.217,1478
841.689,1493
842.163,1518
842.634,1481
843.108,1490
843.582,1520
844.053,1492
844.527,1494
845.001,1484
845.472,1505
845.946,1457
846.417,1504
846.891,1505
847.362,1475
847.836,1492
848.309,1496
848.781,1496
849.254,1505
849.726,1468
850.199,1502
850.67,1514
851.144,1505
851.615,1454
852.088,1510
852.559,1486
853.033,1494
853.504,1486
853.977,1486
854.448,1510
854.921,1506
855.392,1470
855.865,1499
856.336,1512
856.809,1477
857.28,1505
857.753,1486
858.224,1515
858.697,1488
859.168,1494
859.639,1520
860.112,1484
860.583,1501
861.055,1493
861.526,1476
861.997,1494
862.469,1506
862.94,1466
863.413,1518
863.883,1501
864.354,1519
864.827,1470
865.297,1521
865.77,1528
866.24,1506
866.711,1492
867.183,1472
867.654,1497
868.124,1505
868.597,1503
869.067,1512
869.537,1492
870.008,1496
870.48,1524
870.95,1519
871.42,1484
871.893,1521
872.363,1504
872.833,1484
873.305,1524
873.775,1494
874.245,1473
874.715,1509
875.188,1513
875.658,1510
876.128,1500
876.598,1540
877.068,1504
877.539,1529
878.009,1498
878.479,1505
878.949,1478
879.421,1498
879.891,1484
880.36,1522
880.83,1484
881.3,1488
881.77,1496
882.241,1526
882.711,1516
883.181,1514
883.65,1508
884.12,1536
884.589,1528
885.059,1526
885.53,1520
886,1547
886.469,1529
886.939,1534
887.408,1530
887.878,1523
888.347,1564
888.816,1550
889.286,1542
889.757,1518
890.226,1544
890.695,1520
891.165,1564
891.634,1508
892.103,1528
892.572,1519
893.041,1518
893.51,1524
893.98,1525
894.449,1510
894.918,1510
895.387,1533
895.856,1528
896.325,1539
896.794,1540
897.262,1522
897.731,1528
898.2,1514
898.669,1524
899.138,1526
899.607,1533
900.075,1519
900.544,1520
901.013,1542
901.481,1553
901.95,1508
902.419,1516
902.885,1535
903.354,1503
903.823,1523
904.291,1534
904.76,1514
905.228,1525
905.697,1508
906.165,1512
906.633,1505
907.1,1502
907.568,1539
908.036,1540
908.505,1511
908.973,1509
909.441,1521
909.91,1532
910.376,1539
910.844,1530
911.312,1494
911.78,1504
912.249,1531
912.717,1524
913.183,1512
913.651,1512
914.119,1508
914.587,1500
915.053,1512
915.521,1515
915.989,1504
916.457,1494
916.924,1500
917.39,1507
917.858,1515
918.326,1508
918.792,1505
919.26,1496
919.727,1497
920.195,1516
920.661,1520
921.128,1531
921.596,1518
922.062,1528
922.529,1494
922.997,1506
923.464,1520
923.93,1482
924.397,1537
924.865,1510
925.33,1517
925.798,1493
926.263,1512
926.731,1514
927.198,1509
927.663,1504
928.13,1530
928.598,1488
929.063,1549
929.53,1523
929.996,1511
930.463,1551
930.93,1510
931.395,1551
931.862,1534
932.327,1513
932.794,1500
933.259,1493
933.726,1548
934.193,1524
934.658,1542
935.125,1508
935.59,1508
936.057,1535
936.522,1534
936.989,1520
937.454,1510
937.92,1517
938.385,1517
938.852,1519
939.317,1536
939.783,1529
940.248,1541
940.715,1535
941.179,1530
941.646,1526
942.111,1492
942.575,1528
943.042,1542
943.506,1506
943.973,1518
944.437,1523
944.904,1535
945.368,1529
945.832,1534
946.299,1548
946.763,1528
947.229,1534
947.694,1540
948.158,1528
948.624,1532
949.089,1532
949.553,1545
950.019,1526
950.483,1536
950.949,1512
951.413,1533
951.877,1542
952.343,1546
952.807,1544
953.271,1519
953.735,1561
954.201,1542
954.665,1542
955.129,1551
955.595,1526
956.059,1576
956.523,1536
956.987,1548
957.453,1558
957.916,1566
958.38,1552
958.846,1561
959.309,1551
959.773,1563
960.237,1566
960.701,1575
961.166,1564
961.63,1564
962.093,1552
962.557,1542
963.022,1555
963.486,1575
963.949,1570
964.413,1615
964.876,1617
965.339,1574
965.805,1608
966.268,1630
966.732,1612
967.195,1660
967.658,1660
968.121,1663
968.585,1696
969.05,1768
969.513,1750
969.976,1744
970.439,1790
970.902,1858
971.365,1831
971.828,1830
972.292,1830
972.755,1803
973.218,1780
973.682,1734
974.145,1701
974.608,1671
975.071,1648
975.534,1584
975.997,1631
976.46,1627
976.923,1603
977.385,1589
977.848,1612
978.311,1558
978.773,1546
979.236,1586
979.699,1573
980.161,1580
980.624,1560
981.087,1578
981.549,1561
982.012,1567
982.474,1560
982.937,1538
983.399,1594
983.862,1584
984.324,1566
984.785,1558
985.247,1594
985.709,1610
986.172,1609
986.634,1595
987.096,1594
987.558,1608
988.021,1629
988.483,1624
988.945,1606
989.405,1646
989.867,1611
990.329,1601
990.792,1608
991.254,1582
991.716,1564
992.178,1568
992.638,1570
993.1,1558
993.562,1568
994.023,1550
994.485,1536
994.947,1534
995.407,1542
995.869,1558
996.331,1563
996.793,1576
997.252,1516
997.714,1574
998.176,1577
998.637,1540
999.099,1561
999.559,1572
1000.02,1528
1000.48,1541
1000.94,1565
1001.4,1538
1001.86,1548
1002.33,1530
1002.79,1567
1003.25,1572
1003.71,1534
1004.17,1570
1004.63,1577
1005.09,1586
1005.55,1558
1006.01,1592
1006.47,1585
1006.93,1600
1007.39,1599
1007.85,1613
1008.31,1591
1008.77,1593
1009.24,1566
1009.7,1646
1010.16,1556
1010.62,1606
1011.08,1600
1011.54,1562
1012,1578
1012.46,1577
1012.92,1584
1013.38,1579
1013.84,1566
1014.3,1578
1014.76,1591
1015.22,1564
1015.68,1535
1016.14,1555
1016.6,1562
1017.06,1534
1017.52,1548
1017.98,1581
1018.44,1536
1018.9,1548
1019.36,1537
1019.82,1536
1020.27,1522
1020.73,1541
1021.19,1538
1021.65,1532
1022.11,1544
1022.57,1538
1023.03,1526
1023.49,1562
1023.95,1544
1024.41,1541
1024.87,1521
1025.33,1558
1025.79,1551
1026.25,1548
1026.7,1524
1027.16,1532
1027.62,1553
1028.08,1567
1028.54,1522
1029,1533
1029.46,1536
1029.92,1513
1030.38,1528
1030.84,1556
1031.29,1509
1031.75,1482
1032.21,1522
1032.67,1506
1033.13,1526
1033.59,1536
1034.05,1554
1034.5,1545
1034.96,1544
1035.42,1541
1035.88,1546
1036.34,1532
1036.8,1549
1037.25,1536
1037.71,1552
1038.17,1536
1038.63,1537
1039.09,1538
1039.54,1515
1040,1538
1040.46,1517
1040.92,1517
1041.38,1532
1041.84,1509
1042.29,1538
1042.75,1544
1043.21,1534
1043.67,1540
1044.12,1525
1044.58,1500
1045.04,1534
1045.5,1492
1045.95,1540
1046.41,1546
1046.87,1555
1047.33,1556
1047.79,1546
1048.24,1528
1048.7,1516
1049.16,1554
1049.61,1539
1050.07,1543
1050.53,1548
1050.99,1514
1051.44,1551
1051.9,1543
1052.36,1530
1052.81,1510
1053.27,1540
1053.73,1572
1054.19,1552
1054.64,1561
1055.1,1525
1055.56,1568
1056.01,1542
1056.47,1557
1056.93,1518
1057.38,1544
1057.84,1557
1058.3,1578
1058.75,1564
1059.21,1552
1059.67,1544
1060.12,1552
1060.58,1552
1061.04,1544
1061.49,1562
1061.95,1539
1062.41,1552
1062.86,1548
1063.32,1573
1063.77,1536
1064.23,1526
1064.69,1532
1065.14,1526
1065.6,1560
1066.06,1552
1066.51,1552
1066.97,1549
1067.42,1580
1067.88,1541
1068.34,1548
1068.79,1540
1069.25,1548
1069.7,1538
1070.16,1522
1070.62,1539
1071.07,1555
1071.53,1566
1071.98,1520
1072.44,1561
1072.89,1565
1073.35,1530
1073.81,1572
1074.26,1552
1074.71,1561
1075.17,1562
1075.63,1556
1076.08,1564
1076.54,1566
1076.99,1565
1077.45,1550
1077.9,1564
1078.36,1564
1078.81,1566
1079.27,1538
1079.72,1578
1080.18,1560
1080.63,1521
1081.09,1546
1081.54,1566
1082,1540
1082.45,1566
1082.91,1558
1083.36,1561
1083.82,1562
1084.27,1575
1084.73,1564
1085.18,1554
1085.64,1552
1086.09,1574
1086.54,1578
1087,1549
1087.45,1569
1087.91,1556
1088.36,1565
1088.82,1562
1089.27,1572
1089.72,1571
1090.18,1560
1090.63,1571
1091.09,1587
1091.54,1595
1092,1565
1092.45,1573
1092.9,1586
1093.36,1596
1093.81,1588
1094.27,1573
1094.72,1568
1095.17,1586
1095.63,1605
1096.08,1595
1096.54,1606
1096.99,1626
1097.44,1612
1097.9,1596
1098.35,1646
1098.8,1632
1099.26,1661
1099.71,1665
1100.17,1638
1100.62,1691
1101.07,1724
1101.52,1680
1101.98,1734
1102.43,1758
1102.88,1752
1103.34,1779
1103.79,1759
1104.24,1767
1104.7,1816
1105.15,1793
1105.6,1827
1106.06,1788
1106.51,1812
1106.96,1870
1107.41,1882
1107.87,1851
1108.32,1842
1108.78,1876
1109.23,1844
1109.68,1812
1110.13,1766
1110.59,1772
1111.04,1739
1111.49,1712
1111.94,1732
1112.4,1731
1112.85,1714
1113.3,1710
1113.75,1681
1114.21,1678
1114.66,1670
1115.11,1662
1115.56,1639
1116.02,1638
1116.47,1634
1116.92,1628
1117.37,1602
1117.83,1630
1118.28,1615
1118.73,1592
1119.18,1632
1119.63,1575
1120.09,1596
1120.54,1577
1120.99,1618
1121.44,1570
1121.89,1564
1122.34,1597
1122.8,1566
1123.25,1579
1123.7,1592
1124.15,1612
1124.6,1587
1125.05,1581
1125.51,1568
1125.96,1582
1126.41,1582
1126.86,1592
1127.31,1592
1127.76,1602
1128.22,1586
1128.67,1552
1129.12,1583
1129.57,1592
1130.02,1570
1130.47,1608
1130.92,1592
1131.37,1575
1131.82,1599
1132.27,1574
1132.73,1586
1133.18,1604
1133.63,1580
1134.08,1578
1134.53,1600
1134.98,1600
1135.43,1574
1135.88,1573
1136.33,1598
1136.78,1568
1137.23,1575
1137.68,1576
1138.14,1584
1138.59,1590
1139.04,1602
1139.49,1615
1139.94,1586
1140.39,1576
1140.84,1596
1141.29,1600
1141.74,1605
1142.19,1580
1142.64,1568
1143.09,1591
1143.54,1600
1143.99,1612
1144.44,1582
1144.89,1620
1145.34,1628
1145.79,1626
1146.24,1574
1146.69,1620
1147.14,1591
1147.59,1586
1148.04,1639
1148.49,1594
1148.94,1628
1149.39,1596
1149.84,1624
1150.29,1588
1150.74,1600
1151.19,1609
1151.64,1619
1152.09,1592
1152.54,1598
1152.99,1601
1153.44,1582
1153.89,1596
1154.34,1624
1154.78,1602
1155.23,1568
1155.68,1594
1156.13,1633
1156.58,1586
1157.03,1540
1157.48,1598
1157.93,1607
1158.38,1587
1158.83,1611
1159.28,1601
1159.72,1591
1160.17,1608
1160.62,1607
1161.07,1559
1161.52,1600
1161.97,1562
1162.42,1607
1162.87,1604
1163.31,1587
1163.76,1637
1164.21,1594
1164.66,1611
1165.11,1542
1165.56,1601
1166.01,1595
1166.46,1600
1166.9,1612
1167.35,1562
1167.8,1612
1168.25,1592
1168.7,1586
1169.14,1606
1169.59,1594
1170.04,1560
1170.49,1605
1170.94,1584
1171.39,1586
1171.83,1608
1172.28,1604
1172.73,1583
1173.18,1586
1173.63,1595
1174.07,1604
1174.52,1582
1174.97,1609
1175.42,1601
1175.86,1574
1176.31,1612
1176.76,1576
1177.21,1585
1177.66,1604
1178.1,1607
1178.55,1594
1179,1597
1179.45,1601
1179.89,1592
1180.34,1580
1180.79,1597
1181.23,1627
1181.68,1598
1182.13,1595
1182.58,1603
1183.02,1600.87
1183.47,1577.68
1183.92,1585.69
1184.37,1603.08
1184.81,1581.1
1185.26,1596.84
1185.71,1573.53
1186.15,1590.09
1186.6,1597.8
1187.05,1607.23
1187.49,1603.17
1187.94,1574
1188.39,1599.94
1188.83,1587.61
1189.28,1626.86
1189.73,1570.33
1190.17,1589.94
1190.62,1615.98
1191.07,1599.68
1191.51,1607.65
1191.96,1573.94
1192.41,1595.66
1192.85,1593.61
1193.3,1596.04
1193.75,1601.87
1194.19,1609.76
1194.64,1578.94
1195.09,1604.82
1195.53,1597.15
1195.98,1576.46
1196.42,1590.73
1196.87,1574.89
1197.32,1602.97
1197.76,1597.02
1198.21,1604.75
1198.65,1592.53
1199.1,1604.92
1199.55,1598.39
1199.99,1596.46
1200.44,1579.88
1200.88,1575.66
1201.33,1603.54
1201.78,1577.66
1202.22,1611.14
1202.67,1586.13
1203.11,1592.99
1203.56,1588.25
1204,1596.1
1204.45,1594.39
1204.9,1572.21
1205.34,1598.04
1205.79,1589.69
1206.23,1595.41
1206.68,1602.07
1207.12,1591.1
1207.57,1581.84
1208.01,1593.14
1208.46,1596.81
1208.9,1580.04
1209.35,1612.85
1209.79,1584.57
1210.24,1586.47
1210.68,1570.16
1211.13,1565.69
1211.57,1586.94
1212.02,1597.4
1212.46,1596.33
1212.91,1599.06
1213.35,1589.4
1213.8,1586.45
1214.24,1592.24
1214.69,1598.7
1215.13,1608.39
1215.58,1594.84
1216.02,1606.09
1216.47,1609.45
1216.91,1606.63
1217.36,1606.2
1217.8,1611.51
1218.25,1619.74
1218.69,1615.51
1219.13,1623.75
1219.58,1611.59
1220.02,1608.4
1220.47,1593.23
1220.91,1592.02
1221.36,1631.55
1221.8,1654.21
1222.24,1637.09
1222.69,1634.31
1223.13,1650.76
1223.58,1641.31
1224.02,1592.98
1224.46,1629.3
1224.91,1675.41
1225.35,1652.19
1225.8,1668.63
1226.24,1647.9
1226.68,1659.95
1227.13,1654.37
1227.52,1662
1227.97,1634
1228.42,1648
1228.87,1671
1229.31,1691
1229.76,1679
1230.21,1698
1230.66,1694
1231.11,1728
1231.56,1686
1232.01,1694
1232.46,1737
1232.91,1720
1233.35,1765
1233.8,1744
1234.25,1743
1234.7,1748
1235.15,1750
1235.6,1766
1236.05,1775
1236.49,1796
1236.94,1784
1237.39,1803
1237.84,1849
1238.29,1898
1238.74,1889
1239.18,1888
1239.63,1914
1240.08,1890
1240.53,1978
1240.98,1989
1241.43,1984
1241.87,2010
1242.32,2017
1242.77,2062
1243.22,2058
1243.67,2061
1244.11,2089
1244.56,2091
1245.01,2137
1245.46,2087
1245.91,2152
1246.35,2184
1246.8,2126
1247.25,2168
1247.7,2200
1248.14,2224
1248.59,2176
1249.04,2230
1249.49,2213
1249.93,2196
1250.38,2189
1250.83,2216
1251.28,2181
1251.72,2141
1252.17,2116
1252.62,2107
1253.07,2037
1253.51,2028
1253.96,1952
1254.41,1961
1254.86,1946
1255.3,1915
1255.75,1856
1256.2,1847
1256.64,1854
1257.09,1804
1257.54,1774
1257.98,1757
1258.43,1777
1258.88,1776
1259.32,1734
1259.77,1708
1260.22,1744
1260.66,1694
1261.11,1727
1261.56,1734
1262.01,1698
1262.45,1706
1262.9,1726
1263.34,1699
1263.79,1720
1264.24,1670
1264.68,1740
1265.13,1773
1265.58,1714
1266.02,1759
1266.47,1792
1266.92,1798
1267.36,1835
1267.81,1869
1268.25,1900
1268.7,1935
1269.15,1954
1269.59,2067
1270.04,2096
1270.48,2226
1270.93,2302
1271.38,2484
1271.82,2664
1272.27,2994
1272.71,3159
1273.16,3492
1273.6,3719
1274.05,3857
1274.5,3856
1274.94,3717
1275.39,3578
1275.83,3266
1276.28,3020
1276.72,2830
1277.17,2689
1277.61,2500
1278.06,2378
1278.51,2288
1278.95,2143
1279.4,2040
1279.84,1996
1280.29,1901
1280.73,1866
1281.18,1798
1281.62,1767
1282.07,1777
1282.51,1738
1282.96,1714
1283.4,1698
1283.85,1659
1284.29,1671
1284.74,1660
1285.18,1660
1285.63,1648
1286.07,1646
1286.52,1634
1286.96,1604
1287.41,1632
1287.85,1595
1288.3,1620
1288.74,1634
1289.19,1602
1289.63,1609
1290.07,1596
1290.52,1597
1290.96,1574
1291.41,1617
1291.85,1578
1292.3,1564
1292.74,1584
1293.19,1624
1293.63,1597
1294.07,1603
1294.52,1599
1294.96,1584
1295.41,1588
1295.85,1610
1296.3,1570
1296.74,1611
1297.18,1568
1297.63,1593
1298.07,1602
1298.51,1603
1298.96,1565
1299.4,1580
1299.85,1606
1300.29,1588
1300.73,1618
1301.18,1605
1301.62,1573
1302.06,1606
1302.51,1580
1302.95,1573
1303.39,1534
1303.84,1588
1304.28,1560
1304.72,1618
1305.17,1575
1305.61,1584
1306.05,1566
1306.5,1600
1306.94,1596
1307.38,1579
1307.83,1576
1308.27,1574
1308.71,1593
1309.16,1584
1309.6,1593
1310.04,1570
1310.49,1574
1310.93,1581
1311.37,1560
1311.82,1590
1312.26,1582
1312.7,1560
1313.14,1583
1313.59,1560
1314.03,1587
1314.47,1587
1314.92,1573
1315.36,1578
1315.8,1562
1316.24,1587
1316.69,1586
1317.13,1570
1317.57,1563
1318.01,1586
1318.46,1587
1318.9,1595
1319.34,1594
1319.78,1580
1320.22,1595
1320.67,1580
1321.11,1572
1321.55,1588
1321.99,1588
1322.44,1596
1322.88,1587
1323.32,1604
1323.76,1604
1324.2,1596
1324.64,1578
1325.09,1575
1325.53,1607
1325.97,1580
1326.41,1590
1326.85,1578
1327.3,1566
1327.74,1570
1328.18,1589
1328.62,1592
1329.06,1580
1329.51,1558
1329.95,1582
1330.39,1581
1330.83,1614
1331.27,1620
1331.71,1590
1332.15,1598
1332.6,1589
1333.04,1594
1333.48,1579
1333.92,1536
1334.36,1612
1334.8,1574
1335.24,1604
1335.68,1582
1336.12,1566
1336.57,1580
1337.01,1601
1337.45,1588
1337.89,1600
1338.33,1576
1338.77,1580
1339.21,1560
1339.65,1576
1340.09,1582
1340.53,1599
1340.98,1585
1341.42,1590
1341.86,1596
1342.3,1604
1342.74,1547
1343.18,1584
1343.62,1583
1344.06,1592
1344.5,1582
1344.94,1597
1345.38,1574
1345.82,1600
1346.26,1570
1346.7,1607
1347.14,1584
1347.58,1602
1348.02,1607
1348.46,1600
1348.9,1618
1349.34,1605
1349.78,1610
1350.22,1612
1350.66,1629
1351.1,1612
1351.54,1616
1351.98,1632
1352.42,1639
1352.86,1641
1353.3,1648
1353.74,1671
1354.18,1659
1354.62,1653
1355.06,1692
1355.5,1718
1355.94,1730
1356.38,1742
1356.82,1749
1357.26,1752
1357.7,1788
1358.14,1772
1358.58,1804
1359.02,1826
1359.46,1842
1359.9,1858
1360.33,1857
1360.77,1881
1361.21,1854
1361.65,1842
1362.09,1804
1362.53,1810
1362.97,1774
1363.41,1772
1363.85,1750
1364.29,1740
1364.73,1732
1365.16,1735
1365.6,1724
1366.04,1695
1366.48,1640
1366.92,1710
1367.36,1701
1367.8,1630
1368.24,1690
1368.68,1632
1369.11,1616
1369.55,1643
1369.99,1663
1370.43,1613
1370.87,1633
1371.31,1630
1371.75,1614
1372.18,1645
1372.62,1609
1373.06,1597
1373.5,1610
1373.94,1609
1374.37,1619
1374.81,1584
1375.25,1602
1375.69,1580
1376.13,1598
1376.57,1573
1377,1608
1377.44,1573
1377.88,1588
1378.32,1594
1378.76,1582
1379.19,1586
1379.63,1578
1380.07,1590
1380.51,1574
1380.94,1611
1381.38,1587
1381.82,1576
1382.26,1532
1382.7,1613
1383.13,1588
1383.57,1580
1384.01,1546
1384.44,1591
1384.88,1566
1385.32,1588
1385.76,1565
1386.2,1570
1386.63,1576
1387.07,1544
1387.51,1593
1387.94,1576
1388.38,1548
1388.82,1566
1389.26,1549
1389.69,1572
1390.13,1558
1390.57,1566
1391,1561
1391.44,1552
1391.88,1594
1392.31,1579
1392.75,1574
1393.19,1560
1393.62,1577
1394.06,1562
1394.5,1574
1394.94,1582
1395.37,1560
1395.81,1586
1396.24,1572
1396.68,1565
1397.12,1565
1397.56,1550
1397.99,1552
1398.43,1568
1398.86,1568
1399.3,1575
1399.74,1562
1400.17,1562
1400.61,1600
1401.05,1550
1401.48,1569
1401.92,1562
1402.35,1575
1402.79,1556
1403.23,1566
1403.66,1582
1404.1,1578
1404.53,1558
1404.97,1580
1405.41,1560
1405.84,1580
1406.28,1572
1406.71,1580
1407.15,1562
1407.59,1568
1408.02,1564
1408.46,1551
1408.89,1562
1409.33,1566
1409.76,1565
1410.2,1567
1410.64,1574
1411.07,1553
1411.51,1594
1411.94,1571
1412.38,1576
1412.81,1548
1413.25,1590
1413.68,1562
1414.12,1580
1414.55,1554
1414.99,1585
1415.42,1575
1415.86,1562
1416.29,1582
1416.73,1564
1417.16,1603
1417.6,1563
1418.03,1550
1418.47,1607
1418.9,1584
1419.34,1565
1419.77,1566
1420.21,1566
1420.64,1551
1421.08,1562
1421.51,1590
1421.95,1593
1422.38,1563
1422.82,1578
1423.25,1592
1423.69,1578
1424.12,1561
1424.56,1580
1424.99,1570
1425.42,1564
1425.86,1570
1426.29,1580
1426.73,1607
1427.16,1594
1427.59,1596
1428.03,1563
1428.46,1568
1428.9,1596
1429.33,1574
1429.77,1566
1430.2,1569
1430.63,1580
1431.07,1578
1431.5,1540
1431.94,1576
1432.37,1556
1432.8,1623
1433.24,1593
1433.67,1556
1434.1,1572
1434.54,1590
1434.97,1578
1435.41,1589
1435.84,1594
1436.27,1596
1436.71,1607
1437.14,1599
1437.57,1585
1438.01,1610
1438.44,1597
1438.88,1604
1439.31,1623
1439.74,1570
1440.17,1634
1440.61,1610
1441.04,1576
1441.47,1598
1441.91,1595
1442.34,1585
1442.77,1594
1443.21,1624
1443.64,1591
1444.07,1599
1444.51,1637
1444.94,1623
1445.37,1630
1445.8,1607
1446.24,1628
1446.67,1609
1447.1,1610
1447.54,1625
1447.97,1641
1448.4,1628
1448.83,1628
1449.27,1638
1449.7,1653
1450.13,1652
1450.57,1637
1451,1689
1451.43,1661
1451.86,1697
1452.3,1764
1452.73,1882
1453.16,1976
1453.59,2066
1454.02,2092
1454.46,1993
1454.89,1819
1455.32,1744
1455.75,1742
1456.18,1728
1456.62,1727
1457.05,1708
1457.48,1724
1457.91,1732
1458.34,1723
1458.78,1731
1459.21,1753
1459.64,1726
1460.07,1747
1460.5,1733
1460.94,1738
1461.37,1718
1461.8,1683
1462.23,1688
1462.66,1705
1463.09,1684
1463.53,1696
1463.96,1678
1464.39,1709
1464.82,1669
1465.25,1705
1465.68,1667
1466.12,1695
1466.55,1671
1466.98,1666
1467.41,1622
1467.84,1664
1468.27,1688
1468.7,1663
1469.13,1658
1469.56,1685
1470,1662
1470.43,1667
1470.86,1658
1471.29,1652
1471.72,1656
1472.15,1662
1472.58,1628
1473.01,1652
1473.44,1662
1473.87,1612
1474.31,1635
1474.74,1590
1475.17,1598
1475.6,1608
1476.03,1628
1476.46,1643
1476.89,1628
1477.32,1628
1477.75,1622
1478.18,1652
1478.61,1634
1479.04,1612
1479.47,1639
1479.9,1631
1480.33,1640
1480.76,1651
1481.19,1659
1481.62,1657
1482.05,1620
1482.48,1662
1482.91,1629
1483.34,1604
1483.77,1653
1484.2,1638
1484.63,1665
1485.06,1632
1485.49,1669
1485.92,1638
1486.35,1656
1486.78,1637
1487.21,1629
1487.64,1633
1488.07,1642
1488.5,1653
1488.93,1646
1489.36,1662
1489.79,1640
1490.22,1668
1490.65,1663
1491.08,1618
1491.51,1664
1491.94,1656
1492.37,1640
1492.8,1640
1493.23,1666
1493.66,1654
1494.09,1668
1494.51,1621
1494.94,1665
1495.37,1624
1495.8,1623
1496.23,1636
1496.66,1642
1497.09,1620
1497.52,1631
1497.95,1646
1498.38,1626
1498.81,1644
1499.23,1649
1499.66,1610
