Raman Shift (1/cm),Intensity (Counts)
301.431,1438
301.759,1413
302.088,1459
302.416,1430
302.743,1418
303.072,1432
303.4,1450
303.729,1438
304.056,1445
304.384,1451
304.712,1431
305.039,1442
305.368,1425
305.696,1394
306.024,1423
306.351,1464
306.679,1428
307.008,1435
307.335,1452
307.663,1436
307.991,1433
308.318,1448
308.646,1458
308.974,1456
309.301,1421
309.629,1407
309.956,1453
310.284,1436
310.612,1441
310.939,1464
311.267,1435
311.593,1425
311.922,1432
312.25,1446
312.576,1444
312.904,1444
313.231,1445
313.559,1441
313.885,1438
314.213,1418
314.541,1453
314.868,1426
315.196,1438
315.522,1457
315.85,1458
316.176,1462
316.504,1446
316.831,1461
317.159,1437
317.485,1431
317.813,1418
318.139,1463
318.465,1428
318.793,1446
319.12,1438
319.447,1436
319.774,1425
320.101,1442
320.428,1424
320.755,1433
321.082,1448
321.408,1439
321.735,1447
322.062,1450
322.389,1424
322.715,1422
323.042,1439
323.369,1428
323.695,1436
324.021,1455
324.349,1438
324.675,1471
325.001,1438
325.329,1420
325.655,1446
325.981,1441
326.308,1444
326.634,1466
326.96,1443
327.287,1457
327.613,1478
327.939,1416
328.267,1452
328.593,1438
328.918,1423
329.244,1439
329.572,1446
329.898,1428
330.223,1402
330.549,1438
330.876,1441
331.202,1434
331.528,1470
331.854,1462
332.18,1464
332.507,1454
332.833,1454
333.158,1439
333.484,1459
333.81,1418
334.137,1461
334.462,1454
334.788,1429
335.114,1434
335.439,1458
335.765,1468
336.091,1463
336.418,1457
336.743,1418
337.069,1463
337.394,1449
337.72,1433
338.045,1443
338.371,1462
338.696,1440
339.022,1456
339.347,1448
339.673,1460
340,1451
340.325,1451
340.65,1432
340.976,1465
341.301,1471
341.626,1457
341.952,1436
342.277,1435
342.602,1448
342.928,1452
343.253,1457
343.578,1476
343.904,1440
344.229,1434
344.554,1465
344.879,1446
345.204,1430
345.53,1456
345.855,1424
346.179,1456
346.504,1449
346.829,1458
347.154,1447
347.479,1462
347.804,1457
348.129,1424
348.454,1443
348.779,1432
349.104,1450
349.43,1460
349.753,1451
350.078,1458
350.403,1467
350.728,1440
351.053,1466
351.378,1450
351.703,1444
352.026,1444
352.351,1442
352.676,1455
353.001,1435
353.326,1432
353.649,1440
353.974,1455
354.299,1466
354.624,1448
354.949,1424
355.272,1453
355.597,1444
355.921,1443
356.246,1469
356.569,1442
356.894,1429
357.219,1466
357.542,1439
357.867,1458
358.191,1429
358.516,1439
358.839,1445
359.164,1440
359.489,1467
359.812,1440
360.136,1460
360.461,1439
360.784,1452
361.108,1446
361.433,1438
361.756,1450
362.081,1462
362.405,1449
362.728,1452
363.052,1416
363.375,1443
363.7,1450
364.024,1461
364.347,1447
364.672,1497
364.995,1449
365.319,1438
365.643,1453
365.966,1427
366.291,1428
366.613,1451
366.938,1432
367.26,1444
367.585,1457
367.908,1438
368.232,1435
368.555,1460
368.879,1444
369.202,1444
369.526,1462
369.848,1468
370.173,1414
370.495,1442
370.819,1422
371.142,1487
371.466,1471
371.789,1444
372.113,1435
372.436,1463
372.76,1446
373.082,1465
373.405,1449
373.729,1460
374.051,1451
374.375,1448
374.698,1463
375.02,1450
375.344,1456
375.667,1433
375.991,1457
376.313,1442
376.635,1442
376.959,1437
377.282,1442
377.604,1430
377.928,1476
378.25,1430
378.573,1487
378.897,1439
379.219,1464
379.541,1431
379.863,1452
380.187,1446
380.509,1470
380.832,1458
381.155,1461
381.478,1465
381.8,1452
382.122,1454
382.446,1441
382.768,1457
383.09,1458
383.412,1453
383.736,1458
384.058,1458
384.38,1467
384.702,1469
385.024,1451
385.348,1431
385.67,1465
385.992,1462
386.314,1449
386.636,1452
386.958,1464
387.281,1480
387.603,1474
387.925,1473
388.247,1456
388.569,1434
388.891,1456
389.213,1433
389.535,1440
389.858,1462
390.18,1444
390.502,1467
390.824,1416
391.146,1431
391.467,1448
391.789,1449
392.111,1461
392.433,1464
392.755,1478
393.076,1459
393.398,1486
393.72,1466
394.042,1452
394.363,1464
394.685,1432
395.007,1468
395.328,1439
395.65,1455
395.971,1488
396.293,1463
396.615,1480
396.936,1485
397.258,1490
397.579,1466
397.901,1457
398.223,1475
398.544,1444
398.866,1486
399.187,1450
399.509,1476
399.83,1462
400.15,1450
400.471,1465
400.793,1474
401.114,1469
401.436,1452
401.757,1483
402.078,1474
402.4,1480
402.72,1467
403.041,1483
403.362,1466
403.684,1466
404.005,1484
404.326,1480
404.646,1469
404.967,1472
405.289,1452
405.61,1472
405.931,1439
406.251,1439
406.572,1464
406.893,1470
407.214,1480
407.534,1468
407.855,1462
408.176,1453
408.497,1472
408.817,1446
409.138,1443
409.459,1458
409.779,1460
410.1,1441
410.421,1444
410.742,1440
411.061,1452
411.382,1447
411.703,1457
412.023,1462
412.344,1453
412.665,1447
412.984,1452
413.305,1447
413.626,1434
413.945,1430
414.266,1443
414.586,1456
414.906,1460
415.227,1440
415.547,1442
415.867,1471
416.187,1467
416.508,1458
416.828,1439
417.148,1449
417.468,1462
417.788,1464
418.108,1428
418.428,1425
418.748,1451
419.067,1424
419.388,1463
419.707,1444
420.028,1437
420.347,1449
420.668,1461
420.987,1459
421.307,1449
421.627,1450
421.947,1444
422.266,1470
422.587,1458
422.906,1467
423.226,1434
423.545,1435
423.864,1448
424.185,1468
424.504,1456
424.824,1424
425.143,1458
425.464,1464
425.782,1466
426.101,1453
426.422,1458
426.741,1476
427.06,1432
427.38,1494
427.699,1477
428.019,1442
428.338,1428
428.657,1452
428.977,1471
429.296,1446
429.614,1484
429.933,1462
430.253,1434
430.572,1438
430.891,1448
431.211,1453
431.53,1450
431.848,1423
432.167,1459
432.487,1427
432.806,1437
433.125,1442
433.443,1454
433.763,1448
434.082,1476
434.4,1467
434.719,1458
435.039,1423
435.357,1450
435.676,1448
435.995,1460
436.313,1458
436.633,1438
436.951,1433
437.27,1436
437.588,1444
437.907,1456
438.225,1480
438.544,1458
438.863,1450
439.182,1453
439.5,1455
439.819,1448
440.137,1479
440.455,1461
440.774,1448
441.092,1444
441.41,1460
441.73,1464
442.048,1449
442.366,1464
442.685,1464
443.003,1462
443.321,1453
443.639,1455
443.958,1448
444.276,1454
444.594,1422
444.912,1462
445.23,1436
445.548,1455
445.866,1448
446.184,1436
446.503,1438
446.821,1434
447.139,1457
447.457,1446
447.775,1425
448.093,1441
448.411,1445
448.729,1449
449.045,1433
449.363,1440
449.681,1450
449.999,1434
450.317,1466
450.635,1437
450.953,1432
451.271,1441
451.589,1482
451.906,1458
452.223,1459
452.541,1450
452.859,1448
453.176,1459
453.494,1436
453.812,1455
454.128,1462
454.446,1439
454.764,1465
455.081,1448
455.399,1419
455.715,1438
456.033,1467
456.351,1453
456.668,1439
456.986,1461
457.302,1446
457.62,1476
457.938,1469
458.255,1458
458.571,1459
458.889,1472
459.206,1414
459.524,1438
459.84,1462
460.158,1446
460.475,1459
460.791,1484
461.109,1441
461.426,1450
461.742,1426
462.06,1443
462.377,1446
462.693,1456
463.01,1443
463.328,1453
463.644,1444
463.961,1443
464.277,1468
464.594,1461
464.912,1473
465.227,1446
465.545,1465
465.861,1462
466.178,1464
466.495,1444
466.811,1442
467.128,1490
467.444,1484
467.761,1451
468.077,1451
468.394,1462
468.71,1439
469.027,1466
469.344,1453
469.66,1442
469.977,1444
470.293,1414
470.61,1432
470.925,1456
471.241,1437
471.558,1445
471.873,1440
472.19,1475
472.506,1460
472.823,1448
473.139,1438
473.456,1457
473.771,1471
474.088,1438
474.404,1479
474.719,1455
475.036,1450
475.351,1439
475.668,1464
475.984,1426
476.299,1449
476.616,1478
476.931,1458
477.247,1458
477.563,1472
477.879,1452
478.194,1446
478.511,1459
478.826,1474
479.142,1476
479.458,1454
479.774,1472
480.089,1432
480.405,1464
480.721,1470
481.036,1461
481.351,1470
481.668,1449
481.983,1430
482.298,1426
482.613,1441
482.93,1456
483.245,1445
483.56,1452
483.875,1445
484.192,1454
484.507,1473
484.822,1456
485.137,1469
485.452,1465
485.767,1444
486.083,1446
486.398,1451
486.713,1455
487.028,1443
487.343,1453
487.658,1469
487.975,1466
488.29,1439
488.604,1458
488.919,1434
489.234,1471
489.549,1480
489.864,1424
490.179,1451
490.494,1476
490.81,1446
491.125,1450
491.44,1448
491.754,1446
492.069,1418
492.384,1454
492.699,1436
493.013,1458
493.328,1457
493.643,1470
493.957,1441
494.272,1468
494.587,1459
494.901,1472
495.216,1444
495.531,1426
495.845,1452
496.16,1453
496.474,1482
496.789,1456
497.104,1480
497.418,1442
497.733,1437
498.046,1452
498.36,1469
498.675,1424
498.989,1455
499.304,1462
499.618,1442
499.933,1475
500.247,1440
500.561,1470
500.876,1450
501.189,1473
501.503,1455
501.818,1440
502.132,1464
502.446,1466
502.761,1476
503.073,1446
503.388,1444
503.702,1479
504.016,1442
504.331,1448
504.643,1461
504.958,1457
505.272,1433
505.586,1447
505.9,1459
506.213,1452
506.527,1446
506.841,1456
507.155,1457
507.468,1461
507.782,1462
508.096,1452
508.409,1446
508.723,1442
509.037,1456
509.351,1447
509.664,1464
509.978,1469
510.292,1434
510.605,1442
510.919,1446
511.233,1460
511.545,1453
511.859,1462
512.172,1468
512.485,1467
512.799,1448
513.112,1433
513.426,1426
513.74,1462
514.052,1464
514.366,1447
514.678,1443
514.992,1402
515.305,1447
515.618,1441
515.932,1443
516.244,1422
516.558,1466
516.87,1457
517.184,1473
517.497,1432
517.81,1458
518.122,1438
518.436,1461
518.748,1441
519.062,1414
519.374,1435
519.688,1441
520,1455
520.314,1448
520.626,1456
520.94,1447
521.252,1471
521.564,1456
521.877,1458
522.189,1458
522.503,1487
522.815,1449
523.127,1444
523.441,1437
523.753,1425
524.066,1469
524.378,1430
524.69,1459
525.003,1437
525.315,1445
525.627,1460
525.941,1452
526.253,1452
526.565,1462
526.878,1452
527.19,1468
527.502,1461
527.815,1458
528.127,1454
528.439,1442
528.752,1422
529.064,1456
529.376,1476
529.688,1456
530.001,1467
530.312,1441
530.624,1448
530.936,1466
531.249,1469
531.561,1456
531.873,1452
532.184,1432
532.497,1454
532.809,1456
533.121,1459
533.432,1464
533.744,1490
534.056,1467
534.369,1468
534.68,1482
534.992,1495
535.303,1473
535.615,1467
535.926,1461
536.239,1474
536.551,1474
536.862,1448
537.174,1454
537.485,1440
537.797,1439
538.108,1462
538.42,1474
538.731,1453
539.043,1446
539.354,1447
539.665,1457
539.978,1434
540.29,1446
540.601,1452
540.912,1443
541.224,1458
541.535,1454
541.846,1449
542.157,1446
542.469,1435
542.78,1462
543.091,1475
543.403,1446
543.714,1468
544.025,1462
544.336,1460
544.646,1468
544.957,1484
545.268,1483
545.579,1473
545.891,1487
546.202,1446
546.513,1516
546.824,1479
547.135,1485
547.446,1487
547.757,1489
548.067,1462
548.378,1480
548.689,1440
549,1448
549.311,1466
549.622,1443
549.933,1473
550.242,1456
550.553,1467
550.864,1476
551.175,1442
551.486,1466
551.795,1431
552.106,1437
552.417,1450
552.728,1433
553.039,1448
553.348,1411
553.659,1455
553.97,1458
554.281,1456
554.59,1465
554.901,1452
555.212,1439
555.521,1443
555.832,1426
556.142,1433
556.453,1424
556.762,1425
557.073,1455
557.384,1441
557.693,1443
558.004,1449
558.314,1430
558.623,1422
558.934,1444
559.245,1456
559.554,1446
559.864,1438
560.174,1453
560.484,1439
560.795,1441
561.104,1464
561.414,1429
561.723,1432
562.034,1465
562.344,1422
562.653,1437
562.964,1433
563.273,1433
563.583,1445
563.892,1427
564.202,1446
564.511,1434
564.822,1440
565.131,1421
565.441,1426
565.75,1424
566.06,1442
566.369,1429
566.68,1440
566.988,1456
567.299,1445
567.607,1418
567.918,1443
568.227,1445
568.537,1418
568.845,1444
569.154,1445
569.464,1404
569.773,1446
570.083,1436
570.392,1437
570.701,1399
571.011,1457
571.32,1440
571.63,1434
571.938,1430
572.247,1418
572.557,1430
572.866,1441
573.174,1434
573.484,1430
573.793,1453
574.101,1439
574.411,1443
574.72,1439
575.028,1439
575.338,1429
575.647,1427
575.955,1444
576.264,1442
576.574,1444
576.882,1425
577.191,1422
577.499,1422
577.809,1436
578.117,1433
578.426,1419
578.734,1430
579.044,1446
579.352,1423
579.661,1431
579.969,1440
580.277,1448
580.586,1424
580.895,1424
581.204,1437
581.512,1416
581.82,1428
582.128,1420
582.437,1433
582.746,1417
583.054,1433
583.363,1422
583.671,1433
583.979,1422
584.287,1438
584.595,1420
584.903,1438
585.212,1444
585.52,1422
585.828,1413
586.137,1438
586.445,1434
586.753,1420
587.061,1436
587.369,1437
587.677,1453
587.985,1418
588.293,1456
588.601,1453
588.909,1430
589.217,1439
589.525,1460
589.833,1459
590.141,1441
590.449,1457
590.757,1452
591.065,1431
591.371,1450
591.679,1456
591.987,1442
592.295,1445
592.603,1438
592.911,1452
593.218,1438
593.526,1440
593.834,1437
594.142,1454
594.449,1430.67
594.756,1428.27
595.063,1464.37
595.371,1422.99
595.679,1462.04
595.987,1465.11
596.294,1465.31
596.6,1491.81
596.908,1480.06
597.216,1505.76
597.523,1482.87
597.831,1501.37
598.137,1474.88
598.445,1467.61
598.752,1450.28
599.06,1442.74
599.367,1417.53
599.674,1441.97
599.981,1423.01
600.289,1432.55
600.596,1434.31
600.902,1421.47
601.21,1428.4
601.517,1437.48
601.823,1416.66
602.131,1411.07
602.438,1426.41
602.745,1415.17
603.051,1424.33
603.359,1415.82
603.666,1422.84
603.972,1414.33
604.279,1426.48
604.587,1411.94
604.893,1416.47
605.2,1423.61
605.507,1411.67
605.813,1403.93
606.12,1385.24
606.426,1402.18
606.734,1402.59
607.041,1412.55
607.347,1405.99
607.654,1400.55
607.96,1423.09
608.267,1414.96
608.573,1404.39
608.88,1414.16
609.187,1397.8
609.493,1407.48
609.8,1417.77
610.105,1405.96
610.413,1393.26
610.718,1391.7
611.025,1396.55
611.331,1398.57
611.638,1389.24
611.944,1393.68
612.251,1395.85
612.556,1407.63
612.863,1386.27
613.169,1406.97
613.476,1397.66
613.781,1409.91
614.087,1396.58
614.394,1383.17
614.699,1376.93
615.006,1394.29
615.312,1388.87
615.619,1392.59
615.924,1372.65
616.23,1373.14
616.536,1381.05
616.842,1389.98
617.149,1376.1
617.454,1384.61
617.76,1359.19
618.066,1384.82
618.372,1367.01
618.677,1378.79
618.984,1375.45
619.289,1359.11
619.594,1374.45
619.901,1378.52
620.207,1360.56
620.512,1372.33
620.818,1373.71
621.124,1352.79
621.429,1386.33
621.734,1357.78
622.041,1361.88
622.346,1360.79
622.651,1368.61
622.956,1357.09
623.263,1360.15
623.568,1362.32
623.873,1374.1
624.179,1390.01
624.485,1366.76
624.79,1364.27
625.095,1368.9
625.4,1360.15
625.455,1358
625.764,1371
626.074,1356
626.384,1350
626.694,1361
627.004,1352
627.314,1356
627.623,1367
627.933,1343
628.243,1360
628.553,1355
628.862,1350
629.172,1350
629.482,1363
629.791,1326
630.1,1350
630.411,1352
630.72,1364
631.029,1348
631.339,1344
631.648,1341
631.958,1368
632.268,1364
632.577,1362
632.886,1361
633.196,1380
633.505,1346
633.814,1354
634.123,1324
634.434,1364
634.743,1358
635.051,1351
635.36,1362
635.671,1355
635.979,1360
636.288,1369
636.597,1358
636.906,1359
637.216,1360
637.525,1336
637.834,1361
638.143,1372
638.451,1348
638.762,1352
639.07,1358
639.379,1342
639.688,1348
639.997,1369
640.305,1357
640.614,1345
640.924,1375
641.233,1352
641.541,1348
641.85,1367
642.159,1349
642.467,1347
642.776,1344
643.084,1338
643.393,1362
643.702,1354
644.01,1354
644.32,1371
644.629,1368
644.937,1352
645.246,1363
645.554,1340
645.863,1372
646.171,1344
646.479,1334
646.788,1350
647.096,1353
647.405,1330
647.713,1334
648.021,1350
648.33,1353
648.638,1353
648.947,1355
649.255,1339
649.563,1347
649.872,1374
650.178,1336
650.487,1372
650.795,1334
651.103,1346
651.412,1354
651.72,1335
652.028,1369
652.336,1346
652.644,1342
652.953,1338
653.259,1356
653.568,1366
653.876,1352
654.184,1353
654.492,1351
654.8,1358
655.108,1351
655.415,1348
655.723,1363
656.031,1355
656.339,1345
656.647,1341
656.954,1332
657.262,1350
657.57,1377
657.878,1348
658.186,1352
658.492,1360
658.8,1357
659.108,1358
659.416,1352
659.723,1357
660.03,1360
660.338,1354
660.646,1348
660.953,1360
661.26,1356
661.568,1358
661.875,1338
662.183,1339
662.49,1349
662.797,1357
663.104,1343
663.412,1361
663.719,1333
664.026,1339
664.334,1339
664.64,1348
664.948,1353
665.256,1375
665.562,1343
665.87,1357
666.177,1359
666.484,1353
666.791,1362
667.097,1354
667.405,1344
667.711,1366
668.019,1348
668.326,1336
668.633,1344
668.94,1362
669.246,1376
669.554,1352
669.86,1351
670.167,1342
670.473,1360
670.781,1344
671.087,1354
671.394,1362
671.7,1335
672.008,1340
672.314,1344
672.621,1364
672.927,1357
673.234,1358
673.54,1371
673.848,1344
674.154,1370
674.461,1342
674.767,1340
675.073,1363
675.38,1363
675.686,1376
675.993,1338
676.299,1331
676.605,1362
676.912,1359
677.218,1356
677.525,1354
677.831,1342
678.137,1347
678.444,1342
678.749,1361
679.055,1338
679.362,1353
679.668,1352
679.974,1347
680.281,1325
680.586,1324
680.892,1342
681.199,1348
681.505,1368
681.81,1358
682.116,1345
682.423,1356
682.729,1349
683.034,1344
683.34,1342
683.647,1338
683.952,1363
684.258,1362
684.563,1332
684.87,1361
685.176,1350
685.481,1343
685.786,1379
686.092,1354
686.399,1366
686.704,1358
687.01,1352
687.315,1369
687.62,1354
687.926,1355
688.232,1354
688.538,1356
688.843,1347
689.148,1364
689.454,1344
689.759,1328
690.064,1329
690.37,1352
690.676,1333
690.982,1370
691.287,1374
691.592,1340
691.897,1332
692.202,1352
692.508,1347
692.813,1342
693.118,1350
693.423,1334
693.728,1335
694.033,1358
694.338,1341
694.643,1362
694.949,1352
695.254,1344
695.559,1344
695.864,1353
696.169,1361
696.474,1322
696.779,1353
697.084,1363
697.389,1348
697.694,1355
697.999,1351
698.304,1357
698.609,1350
698.914,1348
699.219,1336
699.523,1353
699.828,1355
700.132,1366
700.437,1339
700.742,1347
701.046,1330
701.351,1344
701.656,1337
701.961,1361
702.266,1353
702.569,1342
702.874,1362
703.178,1346
703.483,1324
703.788,1335
704.093,1340
704.396,1329
704.701,1348
705.005,1380
705.31,1343
705.615,1340
705.918,1358
706.223,1341
706.527,1328
706.832,1354
707.135,1349
707.44,1342
707.744,1320
708.049,1349
708.352,1346
708.656,1330
708.961,1341
709.264,1366
709.569,1338
709.873,1340
710.177,1355
710.481,1326
710.785,1335
711.089,1341
711.392,1326
711.697,1352
712.001,1356
712.304,1332
712.609,1348
712.912,1332
713.216,1358
713.52,1342
713.823,1363
714.128,1354
714.432,1350
714.735,1353
715.039,1343
715.342,1338
715.646,1362
715.949,1341
716.253,1338
716.557,1331
716.86,1362
717.164,1323
717.467,1337
717.771,1338
718.074,1326
718.378,1330
718.681,1318
718.985,1336
719.288,1346
719.592,1309
719.895,1342
720.199,1348
720.501,1352
720.805,1335
721.108,1365
721.411,1336
721.715,1338
722.017,1338
722.321,1341
722.624,1338
722.928,1358
723.23,1348
723.533,1331
723.837,1344
724.139,1346
724.443,1335
724.746,1326
725.048,1348
725.352,1354
725.655,1348
725.957,1332
726.261,1332
726.563,1350
726.866,1355
727.169,1327
727.472,1331
727.774,1344
728.078,1330
728.38,1345
728.683,1339
728.986,1317
729.289,1329
729.591,1318
729.893,1336
730.197,1334
730.499,1310
730.801,1337
731.104,1320
731.407,1329
731.71,1330
732.012,1348
732.314,1362
732.617,1315
732.92,1338
733.222,1328
733.524,1326
733.826,1328
734.128,1329
734.432,1354
734.734,1298
735.036,1328
735.338,1314
735.64,1336
735.942,1340
736.246,1330
736.548,1328
736.85,1347
737.152,1328
737.454,1352
737.755,1331
738.057,1320
738.359,1341
738.661,1331
738.963,1330
739.265,1355
739.568,1346
739.87,1350
740.172,1320
740.474,1352
740.776,1338
741.078,1332
741.38,1340
741.681,1347
741.983,1346
742.285,1346
742.587,1308
742.889,1346
743.19,1335
743.492,1338
743.794,1340
744.096,1338
744.397,1366
744.699,1349
744.999,1351
745.301,1316
745.603,1304
745.904,1340
746.206,1342
746.508,1330
746.809,1362
747.111,1332
747.412,1346
747.714,1344
748.015,1336
748.316,1338
748.617,1332
748.919,1350
749.22,1333
749.522,1352
749.823,1358
750.125,1327
750.425,1353
750.726,1331
751.028,1354
751.329,1352
751.63,1348
751.931,1336
752.232,1344
752.533,1338
752.835,1341
753.135,1320
753.436,1360
753.737,1321
754.039,1333
754.339,1358
754.64,1329
754.941,1328
755.242,1328
755.542,1331
755.844,1343
756.145,1334
756.445,1342
756.746,1334
757.047,1362
757.347,1347
757.648,1356
757.949,1341
758.249,1346
758.55,1340
758.851,1335
759.151,1304
759.452,1329
759.753,1344
760.053,1361
760.354,1331
760.654,1328
760.955,1347
761.256,1334
761.555,1353
761.856,1328
762.156,1324
762.457,1328
762.757,1357
763.058,1362
763.358,1346
763.658,1328
763.959,1323
764.258,1338
764.559,1344
764.859,1335
765.16,1340
765.459,1334
765.76,1344
766.06,1346
766.36,1328
766.66,1337
766.961,1341
767.26,1348
767.559,1338
767.86,1313
768.16,1334
768.46,1331
768.76,1324
769.06,1322
769.36,1340
769.659,1345
769.96,1316
770.259,1330
770.56,1306
770.859,1316
771.158,1328
771.459,1340
771.758,1304
772.057,1356
772.358,1304
772.657,1350
772.956,1344
773.257,1320
773.556,1337
773.855,1351
774.156,1339
774.455,1328
774.754,1323
775.054,1341
775.354,1321
775.653,1330
775.952,1332
776.252,1350
776.551,1336
776.85,1351
777.149,1330
777.45,1332
777.749,1339
778.048,1334
778.346,1337
778.645,1354
778.946,1356
779.245,1340
779.544,1347
779.843,1354
780.141,1353
780.442,1371
780.741,1358
781.039,1360
781.338,1391
781.637,1396
781.936,1388
782.235,1400
782.535,1401
782.834,1398
783.133,1398
783.431,1382
783.73,1384
784.029,1401
784.328,1371
784.626,1376
784.925,1372
785.224,1379
785.522,1379
785.821,1360
786.121,1353
786.42,1365
786.718,1389
787.017,1370
787.316,1362
787.614,1352
787.913,1406
788.211,1391
788.51,1423
788.809,1402
789.107,1397
789.406,1410
789.703,1422
790.001,1409
790.3,1419
790.598,1444
790.897,1444
791.195,1418
791.494,1378
791.792,1410
792.091,1400
792.389,1389
792.687,1390
792.986,1385
793.284,1371
793.581,1357
793.879,1384
794.178,1372
794.476,1348
794.774,1351
795.073,1326
795.37,1336
795.668,1346
795.966,1334
796.264,1358
796.563,1342
796.861,1358
797.158,1331
797.456,1355
797.754,1330
798.052,1326
798.349,1343
798.647,1353
798.945,1333
799.244,1321
799.54,1366
799.839,1349
800.137,1319
800.435,1368
800.731,1322
801.029,1336
801.328,1326
801.624,1336
801.922,1328
802.22,1322
802.518,1337
802.815,1310
803.113,1307
803.411,1323
803.707,1330
804.005,1341
804.302,1318
804.6,1323
804.898,1340
805.194,1330
805.492,1335
805.79,1322
806.087,1321
806.384,1326
806.681,1342
806.979,1308
807.275,1331
807.573,1332
807.871,1320
808.167,1335
808.465,1326
808.761,1330
809.059,1333
809.356,1314
809.653,1337
809.95,1340
810.247,1320
810.544,1351
810.841,1322
811.138,1331
811.435,1326
811.732,1314
812.029,1338
812.325,1324
812.623,1324
812.919,1323
813.215,1346
813.513,1346
813.809,1324
814.107,1318
814.403,1320
814.701,1325
814.997,1335
815.293,1322
815.59,1305
815.886,1318
816.182,1326
816.48,1323
816.776,1320
817.072,1302
817.369,1316
817.666,1324
817.962,1326
818.259,1331
818.555,1328
818.851,1322
819.148,1322
819.444,1358
819.74,1334
820.038,1322
820.333,1319
820.629,1330
820.925,1325
821.223,1338
821.518,1321
821.814,1320
822.11,1330
822.407,1316
822.703,1310
822.999,1324
823.295,1302
823.591,1316
823.888,1334
824.184,1300
824.479,1320
824.775,1315
825.071,1325
825.368,1320
825.664,1331
825.959,1313
826.255,1323
826.551,1315
826.846,1328
827.142,1296
827.438,1309
827.735,1303
828.03,1332
828.326,1316
828.622,1332
828.917,1307
829.213,1333
829.508,1313
829.804,1317
830.1,1325
830.395,1305
830.691,1316
830.986,1318
831.282,1323
831.577,1311
831.873,1328
832.168,1322
832.464,1308
832.759,1332
833.054,1296
833.35,1328
833.645,1318
833.941,1316
834.236,1322
834.531,1305
834.827,1334
835.122,1329
835.417,1324
835.713,1310
836.008,1322
836.303,1313
836.599,1328
836.894,1317
837.188,1307
837.483,1320
837.778,1320
838.074,1320
838.369,1290
838.664,1311
838.959,1316
839.254,1304
839.548,1311
839.843,1312
840.138,1316
840.434,1294
840.729,1350
841.022,1317
841.318,1308
841.613,1322
841.908,1316
842.203,1319
842.497,1312
842.792,1319
843.087,1326
843.382,1336
843.675,1335
843.97,1314
844.265,1311
844.56,1319
844.854,1324
845.149,1310
845.444,1296
845.737,1338
846.032,1307
846.327,1302
846.621,1303
846.916,1325
847.21,1306
847.504,1316
847.799,1305
848.094,1305
848.387,1321
848.682,1302
848.977,1312
849.27,1309
849.565,1294
849.858,1320
850.153,1313
850.448,1326
850.741,1315
851.036,1302
851.329,1314
851.624,1316
851.917,1300
852.212,1306
852.507,1323
852.8,1320
853.094,1324
853.388,1316
853.682,1312
853.976,1306
854.27,1314
854.563,1298
854.858,1316
855.151,1333
855.446,1307
855.739,1286
856.032,1294
856.327,1284
856.62,1330
856.914,1329
857.207,1307
857.502,1305
857.795,1297
858.089,1305
858.382,1300
858.675,1322
858.97,1309
859.263,1336
859.556,1321
859.85,1312
860.143,1302
860.438,1280
860.731,1298
861.024,1326
861.318,1302
861.611,1318
861.904,1298
862.198,1300
862.491,1277
862.784,1318
863.077,1330
863.371,1313
863.664,1312
863.957,1294
864.251,1290
864.544,1305
864.837,1309
865.129,1307
865.424,1290
865.716,1303
866.009,1283
866.302,1311
866.596,1318
866.889,1300
867.181,1297
867.474,1312
867.767,1319
868.059,1298
868.354,1309
868.646,1331
868.939,1314
869.232,1309
869.524,1290
869.817,1295
870.111,1292
870.403,1286
870.696,1302
870.988,1292.91
871.281,1301.6
871.574,1297.45
871.866,1276.94
872.159,1300.42
872.451,1303.21
872.744,1309.95
873.038,1296.4
873.33,1303.57
873.622,1310.92
873.915,1294.25
874.207,1302.89
874.5,1297.07
874.792,1281.7
875.085,1290.66
875.377,1310.63
875.669,1287.07
875.962,1293.18
876.254,1282.82
876.547,1296.77
876.839,1301.94
877.131,1289.7
877.424,1294.78
877.716,1314.43
878.008,1286.27
878.3,1311.28
878.591,1298.45
878.884,1299.68
879.176,1283.66
879.468,1301.22
879.76,1277
880.053,1279.3
880.345,1295.1
880.637,1298.73
880.929,1294.25
881.221,1284.88
881.512,1294.3
881.804,1283.73
882.096,1291.9
882.389,1294.66
882.681,1274.81
882.973,1287.58
883.264,1280.82
883.556,1280.07
883.848,1292.35
884.14,1293.31
884.432,1272.76
884.724,1277.99
885.014,1286.48
885.307,1292.79
885.599,1292.94
885.891,1285.24
886.181,1269.13
886.473,1275.42
886.765,1286.94
887.057,1275.56
887.348,1279.16
887.639,1289.28
887.931,1282.72
888.222,1291.07
888.514,1285.38
888.806,1284.51
889.098,1281.74
889.388,1286.51
889.68,1287.47
889.972,1279
890.262,1272.32
890.554,1266.11
890.846,1271.18
891.136,1271.56
891.428,1277.6
891.718,1280.63
892.01,1285.92
892.302,1284.36
892.592,1272.6
892.884,1274.37
893.174,1271.49
893.466,1267.76
893.758,1266.25
894.048,1262.74
894.34,1271.5
894.63,1281.09
894.922,1261.22
895.212,1267.7
895.503,1258.95
895.795,1263.44
896.085,1270.46
896.377,1266.94
896.667,1278.38
896.959,1267.88
897.249,1259.48
897.54,1265.74
897.831,1260.46
898.122,1273.63
898.412,1251.4
898.702,1256.79
898.994,1254.36
899.284,1257.85
899.575,1260.26
899.866,1256.35
900.157,1269.18
900.447,1267.37
900.737,1269.95
901.028,1254.78
901.318,1262.07
901.61,1287.18
901.9,1264.42
902.19,1263.96
902.481,1272.9
902.518,1274
902.813,1263
903.107,1252
903.403,1269
903.698,1258
903.992,1277
904.287,1278
904.583,1264
904.877,1271
905.172,1272
905.466,1273
905.761,1240
906.056,1262
906.35,1287
906.646,1268
906.939,1266
907.235,1249
907.528,1266
907.824,1254
908.117,1268
908.413,1275
908.706,1270
909.002,1258
909.295,1252
909.591,1268
909.884,1248
910.179,1270
910.473,1250
910.768,1274
911.062,1245
911.357,1281
911.651,1246
911.946,1264
912.239,1277
912.534,1274
912.828,1254
913.122,1271
913.417,1266
913.71,1272
914.005,1240
914.299,1246
914.592,1254
914.887,1265
915.181,1266
915.476,1254
915.769,1264
916.063,1268
916.358,1250
916.651,1269
916.945,1265
917.239,1250
917.533,1264
917.826,1258
918.121,1266
918.414,1268
918.708,1264
919.003,1272
919.296,1276
919.589,1265
919.883,1242
920.177,1256
920.471,1245
920.764,1272
921.057,1272
921.352,1249
921.645,1280
921.939,1264
922.232,1274
922.527,1266
922.82,1272
923.113,1236
923.406,1250
923.7,1256
923.994,1276
924.287,1288
924.58,1258
924.874,1249
925.167,1262
925.46,1251
925.754,1270
926.047,1258
926.341,1266
926.634,1265
926.927,1276
927.22,1264
927.513,1279
927.806,1256
928.1,1257
928.393,1257
928.686,1250
928.979,1278
929.272,1274
929.565,1252
929.858,1266
930.151,1258
930.444,1273
930.737,1270
931.03,1235
931.323,1252
931.616,1270
931.909,1270
932.202,1270
932.495,1246
932.787,1250
933.08,1248
933.373,1266
933.666,1258
933.959,1244
934.252,1260
934.544,1259
934.837,1269
935.13,1268
935.423,1255
935.715,1251
936.008,1268
936.301,1258
936.594,1269
936.885,1268
937.178,1240
937.47,1251
937.763,1261
938.056,1252
938.348,1268
938.641,1265
938.933,1265
939.225,1263
939.517,1269
939.81,1258
940.102,1232
940.395,1258
940.688,1254
940.979,1251
941.271,1242
941.564,1257
941.856,1249
942.149,1261
942.44,1272
942.732,1269
943.025,1260
943.317,1259
943.608,1267
943.901,1269
944.193,1246
944.486,1260
944.777,1246
945.069,1258
945.361,1264
945.654,1262
945.945,1272
946.237,1254
946.529,1269
946.82,1250
947.113,1267
947.405,1262
947.696,1268
947.988,1258
948.28,1262
948.571,1248
948.863,1260
949.156,1267
949.446,1239
949.739,1261
950.029,1248
950.322,1257
950.614,1266
950.905,1258
951.197,1234
951.488,1266
951.78,1254
952.072,1243
952.362,1255
952.655,1248
952.945,1260
953.237,1251
953.528,1263
953.82,1240
954.111,1260
954.403,1264
954.693,1264
954.985,1246
955.276,1251
955.568,1252
955.859,1254
956.15,1246
956.441,1250
956.733,1257
957.023,1256
957.315,1276
957.606,1256
957.898,1242
958.188,1259
958.479,1260
958.771,1279
959.061,1230
959.353,1234
959.643,1258
959.934,1256
960.226,1265
960.516,1252
960.808,1255
961.098,1260
961.389,1276
961.68,1255
961.971,1259
962.261,1252
962.553,1262
962.843,1254
963.133,1260
963.425,1232
963.715,1236
964.006,1248
964.297,1252
964.587,1269
964.878,1255
965.168,1271
965.46,1253
965.75,1276
966.04,1238
966.33,1262
966.622,1242
966.912,1274
967.202,1254
967.492,1253
967.784,1256
968.074,1264
968.364,1246
968.654,1275
968.944,1284
969.235,1258
969.526,1264
969.816,1285
970.106,1280
970.396,1256
970.686,1280
970.977,1260
971.267,1273
971.557,1268
971.847,1276
972.137,1259
972.427,1263
972.717,1266
973.007,1273
973.298,1248
973.588,1242
973.878,1242
974.168,1250
974.458,1261
974.748,1251
975.037,1255
975.327,1255
975.617,1240
975.907,1263
976.197,1233
976.487,1267
976.776,1242
977.066,1246
977.356,1250
977.646,1266
977.935,1251
978.225,1242
978.515,1264
978.804,1245
979.094,1242
979.384,1234
979.674,1264
979.963,1238
980.253,1250
980.542,1235
980.832,1248
981.122,1246
981.41,1254
981.7,1242
981.989,1252
982.279,1275
982.568,1247
982.858,1249
983.147,1252
983.437,1252
983.726,1256
984.015,1250
984.304,1263
984.594,1236
984.883,1231
985.172,1240
985.462,1237
985.75,1258
986.039,1228
986.329,1262
986.618,1271
986.908,1246
987.196,1269
987.485,1250
987.774,1255
988.064,1239
988.352,1252
988.641,1253
988.93,1284
989.22,1245
989.508,1265
989.797,1232
990.086,1242
990.374,1246
990.663,1239
990.953,1249
991.242,1258
991.53,1240
991.819,1245
992.108,1256
992.396,1242
992.685,1251
992.974,1240
993.262,1246
993.551,1241
993.839,1258
994.128,1246
994.417,1234
994.705,1252
994.994,1267
995.282,1243
995.571,1248
995.86,1253
996.147,1261
996.436,1248
996.724,1261
997.013,1258
997.301,1248
997.59,1249
997.879,1238
998.166,1230
998.455,1266
998.743,1264
999.032,1245
999.319,1244
999.608,1242
999.896,1258
1000.18,1250
1000.47,1264
1000.76,1236
1001.05,1255
1001.34,1246
1001.62,1261
1001.91,1250
1002.2,1249
1002.49,1248
1002.78,1264
1003.06,1225
1003.35,1244
1003.64,1244
1003.93,1242
1004.22,1256
1004.5,1241
1004.79,1235
1005.08,1244
1005.37,1261
1005.66,1249
1005.94,1266
1006.23,1232
1006.52,1246
1006.81,1216
1007.09,1252
1007.38,1258
1007.67,1248
1007.96,1250
1008.24,1256
1008.53,1252
1008.82,1255
1009.11,1239
1009.4,1260
1009.68,1254
1009.97,1246
1010.26,1238
1010.55,1246
1010.83,1260
1011.12,1247
1011.41,1250
1011.7,1252
1011.98,1259
1012.27,1240
1012.56,1230
1012.84,1260
1013.13,1228
1013.42,1250
1013.71,1247
1013.99,1249
1014.28,1256
1014.57,1255
1014.85,1237
1015.14,1250
1015.43,1234
1015.72,1240
1016,1250
1016.29,1238
1016.58,1253
1016.86,1238
1017.15,1263
1017.44,1251
1017.73,1243
1018.01,1239
1018.3,1222
1018.59,1234
1018.87,1244
1019.16,1218
1019.45,1263
1019.73,1254
1020.02,1250
1020.31,1236
1020.59,1246
1020.88,1246
1021.17,1232
1021.45,1236
1021.74,1238
1022.03,1259
1022.31,1240
1022.6,1204
1022.89,1259
1023.17,1250
1023.46,1238
1023.75,1250
1024.03,1234
1024.32,1241
1024.61,1242
1024.89,1249
1025.18,1247
1025.47,1232
1025.75,1240
1026.04,1256
1026.32,1233
1026.61,1254
1026.9,1235
1027.18,1238
1027.47,1228
1027.76,1250
1028.04,1239
1028.33,1241
1028.62,1245
1028.9,1226
1029.19,1232
1029.47,1255
1029.76,1218
1030.05,1206
1030.33,1242
1030.62,1247
1030.9,1226
1031.19,1251
1031.48,1237
1031.76,1246
1032.05,1245
1032.33,1250
1032.62,1248
1032.9,1259
1033.19,1245
1033.48,1242
1033.76,1244
1034.05,1259
1034.33,1250
1034.62,1257
1034.91,1227
1035.19,1244
1035.48,1232
1035.76,1242
1036.05,1248
1036.34,1232
1036.62,1241
1036.91,1242
1037.19,1236
1037.48,1250
1037.76,1247
1038.05,1249
1038.33,1253
1038.62,1242
1038.9,1251
1039.19,1237
1039.48,1243
1039.76,1235
1040.05,1247
1040.33,1248
1040.62,1234
1040.9,1242
1041.19,1244
1041.47,1210
1041.76,1246
1042.04,1225
1042.33,1248
1042.61,1220
1042.9,1244
1043.18,1236
1043.47,1249
1043.75,1226
1044.04,1228
1044.33,1228
1044.61,1240
1044.9,1229
1045.18,1233
1045.47,1223
1045.75,1226
1046.04,1244
1046.32,1237
1046.6,1231
1046.89,1226
1047.17,1240
1047.46,1262
1047.74,1216
1048.03,1244
1048.31,1242
1048.6,1237
1048.88,1246
1049.17,1234
1049.45,1234
1049.74,1235
1050.02,1242
1050.31,1244
1050.59,1239
1050.88,1228
1051.16,1243
1051.45,1260
1051.73,1222
1052.02,1241
1052.3,1235
1052.58,1232
1052.87,1234
1053.15,1232
1053.44,1236
1053.72,1222
1054.01,1208
1054.29,1240
1054.58,1232
1054.86,1248
1055.14,1234
1055.43,1214
1055.71,1218
1056,1220
1056.28,1226
1056.57,1234
1056.85,1252
1057.13,1235
1057.42,1233
1057.7,1221
1057.99,1222
1058.27,1218
1058.55,1241
1058.84,1236
1059.12,1233
1059.41,1224
1059.69,1243
1059.98,1232
1060.26,1218
1060.54,1237
1060.83,1220
1061.11,1227
1061.39,1228
1061.68,1244
1061.96,1240
1062.25,1244
1062.53,1230
1062.81,1223
1063.1,1222
1063.38,1225
1063.67,1249
1063.95,1234
1064.23,1234
1064.52,1232
1064.8,1260
1065.08,1239
1065.37,1244
1065.65,1238
1065.93,1228
1066.22,1220
1066.5,1241
1066.79,1247
1067.07,1202
1067.35,1234
1067.64,1218
1067.92,1235
1068.2,1214
1068.49,1237
1068.77,1238
1069.05,1243
1069.34,1227
1069.62,1224
1069.9,1214
1070.19,1224
1070.47,1219
1070.75,1236
1071.04,1226
1071.32,1210
1071.6,1210
1071.89,1253
1072.17,1227
1072.45,1231
1072.73,1220
1073.02,1221
1073.3,1230
1073.58,1241
1073.87,1220
1074.15,1232
1074.43,1219
1074.72,1236
1075,1217
1075.28,1215
1075.57,1218
1075.85,1220
1076.13,1227
1076.41,1236
1076.7,1237
1076.98,1220
1077.26,1236
1077.54,1232
1077.83,1231
1078.11,1221
1078.39,1225
1078.68,1216
1078.96,1241
1079.24,1240
1079.52,1246
1079.81,1231
1080.09,1226
1080.37,1236
1080.65,1231
1080.94,1235
1081.22,1216
1081.5,1226
1081.78,1206
1082.07,1236
1082.35,1206
1082.63,1213
1082.91,1226
1083.2,1231
1083.48,1233
1083.76,1218
1084.04,1228
1084.33,1231
1084.61,1226
1084.89,1230
1085.17,1222
1085.46,1216
1085.74,1235
1086.02,1202
1086.3,1231
1086.58,1244
1086.87,1224
1087.15,1202
1087.43,1224
1087.71,1226
1087.99,1216
1088.28,1216
1088.56,1230
1088.84,1222
1089.12,1230
1089.4,1230
1089.69,1225
1089.97,1230
1090.25,1215
1090.53,1230
1090.81,1218
1091.1,1228
1091.38,1213
1091.66,1246
1091.94,1227
1092.22,1246
1092.5,1222
1092.79,1226
1093.07,1227
1093.35,1230
1093.63,1226
1093.91,1232
1094.19,1241
1094.47,1214
1094.76,1222
1095.04,1224
1095.32,1231
1095.6,1225
1095.88,1233
1096.16,1246
1096.45,1233
1096.73,1220
1097.01,1232
1097.29,1217
1097.57,1242
1097.85,1218
1098.13,1234
1098.42,1245
1098.7,1216
1098.98,1221
1099.26,1236
1099.54,1225
1099.82,1236
1100.1,1222
1100.38,1229
1100.66,1240
1100.95,1238
1101.23,1237
1101.51,1246
1101.79,1235
1102.07,1244
1102.35,1247
1102.63,1228
1102.91,1237
1103.19,1238
1103.48,1222
1103.76,1241
1104.04,1242
1104.32,1222
1104.6,1252
1104.88,1244
1105.16,1231
1105.44,1239
1105.72,1230
1106,1263
1106.28,1244
1106.56,1253
1106.85,1222
1107.13,1254
1107.41,1246
1107.69,1249
1107.97,1243
1108.25,1228
1108.53,1249
1108.81,1242
1109.09,1245
1109.37,1223
1109.65,1221
1109.93,1245
1110.21,1244
1110.49,1213
1110.77,1235
1111.05,1226
1111.33,1233
1111.62,1234
1111.89,1233
1112.18,1215
1112.46,1227
1112.74,1239
1113.02,1222
1113.3,1242
1113.58,1233
1113.86,1237
1114.14,1230
1114.42,1196
1114.7,1229
1114.98,1233
1115.26,1223
1115.54,1230
1115.82,1231
1116.1,1211
1116.38,1246
1116.66,1234
1116.94,1226
1117.22,1217
1117.5,1220
1117.78,1217
1118.06,1223
1118.34,1220
1118.62,1238
1118.9,1227
1119.18,1240
1119.46,1215
1119.74,1230
1120.02,1226
1120.3,1243
1120.58,1225
1120.86,1227
1121.14,1219
1121.42,1236
1121.7,1232
1121.98,1223
1122.26,1233
1122.53,1239
1122.81,1202
1123.09,1231
1123.37,1202
1123.65,1228
1123.93,1236
1124.21,1236
1124.49,1210
1124.77,1226
1125.05,1212
1125.33,1224
1125.61,1232
1125.89,1210
1126.17,1234
1126.45,1224
1126.73,1203
1127.01,1200
1127.29,1223
1127.56,1210
1127.84,1219
1128.12,1230
1128.4,1214
1128.68,1216
1128.96,1214
1129.24,1225
1129.52,1210
1129.8,1222
1130.08,1220
1130.36,1216
1130.63,1218
1130.91,1199
1131.19,1232
1131.47,1220
1131.75,1215
1132.03,1221
1132.31,1223
1132.59,1224
1132.87,1203
1133.15,1230
1133.42,1203
1133.7,1230
1133.98,1215
1134.26,1217
1134.54,1188
1134.82,1217
1135.1,1224
1135.38,1228
1135.65,1221.78
1135.93,1228.5
1136.21,1231.19
1136.49,1219.28
1136.77,1222.89
1137.05,1217.05
1137.33,1212.64
1137.6,1212.24
1137.88,1212.32
1138.16,1210.87
1138.44,1216.62
1138.72,1216.49
1139,1212.92
1139.28,1198.03
1139.55,1216.7
1139.83,1221.64
1140.11,1210.66
1140.39,1213.45
1140.67,1221.11
1140.95,1215.12
1141.22,1209.2
1141.5,1215.89
1141.78,1215.53
1142.06,1203.22
1142.34,1212.33
1142.62,1219.12
1142.89,1223.54
1143.17,1221.79
1143.45,1211.3
1143.73,1211.71
1144.01,1218.64
1144.28,1207.58
1144.56,1221.19
1144.84,1207.09
1145.12,1209.38
1145.4,1214.36
1145.67,1206.72
1145.95,1216.96
1146.23,1212.54
1146.51,1209.3
1146.79,1209.93
1147.06,1212.84
1147.34,1207.42
1147.62,1205.27
1147.9,1203.82
1148.18,1198.63
1148.45,1222.63
1148.73,1209.4
1149.01,1209.65
1149.29,1202.04
1149.56,1208
1149.84,1208.07
1150.12,1200.86
1150.4,1202.11
1150.67,1215.79
1150.95,1212.82
1151.23,1205.72
1151.51,1202.49
1151.79,1200.2
1152.06,1209.5
1152.34,1203.48
1152.62,1202.25
1152.89,1203.85
1153.17,1205.19
1153.45,1198.25
1153.73,1198.83
1154,1211.89
1154.28,1203.54
1154.56,1205.72
1154.84,1208.66
1155.11,1198.95
1155.39,1205.82
1155.67,1199.17
1155.95,1191.12
1156.22,1197.43
1156.5,1188.04
1156.78,1186.77
1157.06,1197.02
1157.33,1191.74
1157.61,1200.99
1157.89,1204.8
1158.16,1201.25
1158.44,1196.76
1158.72,1199.73
1158.99,1199.98
1159.27,1194.64
1159.55,1201.92
1159.83,1191.35
1160.1,1185.54
1160.38,1203.49
1160.66,1209.44
1160.93,1197.79
1161.21,1178.03
1161.49,1183.31
1161.76,1197.43
1162.04,1188.78
1162.32,1202.38
1162.59,1193.36
1162.87,1196.67
1163.15,1190.84
1163.42,1195.39
1163.7,1186.27
1163.98,1194.7
1164.25,1201.23
1164.48,1190
1164.76,1208
1165.04,1198
1165.32,1202
1165.6,1200
1165.88,1193
1166.16,1184
1166.45,1197
1166.73,1176
1167.01,1196
1167.29,1199
1167.57,1190
1167.85,1202
1168.13,1195
1168.41,1185
1168.69,1189
1168.97,1204
1169.25,1196
1169.53,1190
1169.82,1208
1170.1,1198
1170.38,1196
1170.66,1190
1170.94,1199
1171.22,1198
1171.5,1202
1171.78,1195
1172.06,1197
1172.34,1192
1172.62,1191
1172.9,1217
1173.18,1187
1173.46,1192
1173.74,1196
1174.02,1180
1174.3,1184
1174.58,1192
1174.86,1194
1175.14,1203
1175.43,1196
1175.7,1195
1175.99,1198
1176.27,1189
1176.55,1178
1176.83,1205
1177.11,1189
1177.39,1191
1177.67,1188
1177.95,1222
1178.23,1206
1178.51,1194
1178.79,1192
1179.07,1185
1179.35,1186
1179.63,1198
1179.91,1188
1180.19,1180
1180.47,1180
1180.75,1194
1181.03,1206
1181.31,1204
1181.59,1196
1181.87,1187
1182.15,1188
1182.43,1188
1182.71,1184
1182.99,1188
1183.27,1193
1183.54,1188
1183.83,1190
1184.1,1214
1184.38,1196
1184.66,1224
1184.94,1197
1185.22,1181
1185.5,1187
1185.78,1188
1186.06,1186
1186.34,1190
1186.62,1202
1186.9,1202
1187.18,1186
1187.46,1210
1187.74,1209
1188.02,1210
1188.3,1207
1188.58,1203
1188.86,1202
1189.14,1189
1189.41,1180
1189.7,1204
1189.97,1202
1190.25,1199
1190.53,1200
1190.81,1192
1191.09,1191
1191.37,1194
1191.65,1186
1191.93,1198
1192.21,1195
1192.49,1178
1192.77,1204
1193.05,1195
1193.32,1198
1193.6,1184
1193.88,1187
1194.16,1197
1194.44,1192
1194.72,1174
1195,1190
1195.28,1193
1195.56,1201
1195.83,1195
1196.11,1197
1196.39,1184
1196.67,1194
1196.95,1180
1197.23,1198
1197.51,1192
1197.79,1190
1198.07,1189
1198.34,1201
1198.62,1206
1198.9,1197
1199.18,1197
1199.46,1182
1199.74,1192
1200.02,1194
1200.29,1198
1200.57,1168
1200.85,1195
1201.13,1197
1201.41,1190
1201.69,1200
1201.97,1200
1202.24,1187
1202.52,1186
1202.8,1203
1203.08,1181
1203.36,1196
1203.64,1190
1203.91,1190
1204.19,1183
1204.47,1192
1204.75,1184
1205.03,1184
1205.31,1174
1205.58,1192
1205.86,1192
1206.14,1198
1206.42,1156
1206.7,1182
1206.97,1212
1207.25,1186
1207.53,1200
1207.81,1192
1208.09,1185
1208.36,1176
1208.64,1202
1208.92,1200
1209.2,1183
1209.48,1192
1209.75,1204
1210.03,1184
1210.31,1178
1210.59,1186
1210.87,1204
1211.14,1190
1211.42,1196
1211.7,1195
1211.98,1202
1212.26,1188
1212.53,1174
1212.81,1197
1213.09,1202
1213.37,1199
1213.64,1188
1213.92,1194
1214.2,1195
1214.48,1189
1214.75,1188
1215.03,1200
1215.31,1188
1215.59,1195
1215.86,1183
1216.14,1195
1216.42,1186
1216.7,1208
1216.97,1191
1217.25,1176
1217.53,1200
1217.81,1195
1218.08,1186
1218.36,1194
1218.64,1195
1218.92,1158
1219.19,1193
1219.47,1200
1219.75,1204
1220.03,1201
1220.3,1170
1220.58,1199
1220.86,1206
1221.13,1186
1221.41,1194
1221.69,1193
1221.97,1198
1222.24,1194
1222.52,1195
1222.8,1190
1223.07,1168
1223.35,1182
1223.63,1199
1223.9,1168
1224.18,1187
1224.46,1187
1224.74,1180
1225.01,1199
1225.29,1189
1225.57,1209
1225.84,1215
1226.12,1187
1226.4,1203
1226.67,1207
1226.95,1187
1227.23,1210
1227.5,1168
1227.78,1193
1228.06,1190
1228.33,1202
1228.61,1193
1228.89,1180
1229.16,1186
1229.44,1203
1229.72,1205
1229.99,1180
1230.27,1203
1230.54,1197
1230.82,1187
1231.1,1202
1231.37,1202
1231.65,1200
1231.93,1186
1232.2,1187
1232.48,1197
1232.76,1180
1233.03,1214
1233.31,1178
1233.59,1196
1233.86,1174
1234.14,1206
1234.41,1214
1234.69,1199
1234.97,1198
1235.24,1187
1235.52,1179
1235.79,1199
1236.07,1193
1236.35,1186
1236.62,1193
1236.9,1178
1237.18,1176
1237.45,1206
1237.73,1186
1238,1198
1238.28,1204
1238.56,1219
1238.83,1202
1239.11,1172
1239.38,1180
1239.66,1206
1239.94,1203
1240.21,1213
1240.49,1203
1240.76,1200
1241.04,1212
1241.31,1212
1241.59,1191
1241.87,1192
1242.14,1207
1242.42,1218
1242.69,1213
1242.97,1216
1243.24,1209
1243.52,1192
1243.8,1194
1244.07,1200
1244.35,1208
1244.62,1214
1244.9,1198
1245.17,1210
1245.45,1198
1245.72,1215
1246,1209
1246.27,1204
1246.55,1213
1246.83,1224
1247.1,1218
1247.38,1232
1247.65,1211
1247.93,1234
1248.2,1232
1248.48,1197
1248.75,1206
1249.03,1172
1249.3,1219
1249.58,1215
1249.85,1216
1250.13,1200
1250.4,1231
1250.68,1200
1250.95,1204
1251.23,1220
1251.5,1206
1251.78,1202
1252.05,1202
1252.33,1202
1252.6,1200
1252.88,1220
1253.15,1190
1253.43,1198
1253.7,1172
1253.98,1210
1254.25,1194
1254.53,1196
1254.8,1192
1255.08,1195
1255.35,1208
1255.63,1198
1255.9,1198
1256.18,1207
1256.45,1194
1256.73,1200
1257,1188
1257.28,1195
1257.55,1192
1257.82,1182
1258.1,1188
1258.37,1182
1258.65,1196
1258.92,1198
1259.2,1198
1259.47,1201
1259.75,1194
1260.02,1180
1260.3,1200
1260.57,1178
1260.84,1199
1261.12,1206
1261.39,1188
1261.67,1184
1261.94,1184
1262.22,1181
1262.49,1198
1262.76,1193
1263.04,1200
1263.31,1200
1263.59,1194
1263.86,1212
1264.14,1195
1264.41,1192
1264.68,1176
1264.96,1180
1265.23,1200
1265.51,1188
1265.78,1192
1266.05,1184
1266.33,1197
1266.6,1188
1266.88,1193
1267.15,1213
1267.42,1193
1267.7,1202
1267.97,1208
1268.25,1201
1268.52,1192
1268.79,1189
1269.07,1210
1269.34,1200
1269.62,1202
1269.89,1211
1270.16,1219
1270.44,1208
1270.71,1228
1270.98,1226
1271.26,1233
1271.53,1238
1271.81,1266
1272.08,1260
1272.35,1264
1272.63,1272
1272.9,1278
1273.17,1289
1273.45,1305
1273.72,1280
1273.99,1296
1274.27,1287
1274.54,1269
1274.81,1274
1275.09,1260
1275.36,1254
1275.63,1226
1275.91,1236
1276.18,1230
1276.45,1239
1276.73,1224
1277,1215
1277.27,1226
1277.55,1180
1277.82,1199
1278.09,1190
1278.37,1208
1278.64,1184
1278.91,1193
1279.19,1200
1279.46,1209
1279.73,1180
1280.01,1182
1280.28,1190
1280.55,1198
1280.82,1205
1281.1,1182
1281.37,1201
1281.64,1192
1281.92,1179
1282.19,1176
1282.46,1188
1282.74,1192
1283.01,1190
1283.28,1201
1283.55,1192
1283.83,1178
1284.1,1186
1284.37,1185
1284.64,1191
1284.92,1184
1285.19,1187
1285.46,1182
1285.74,1182
1286.01,1190
1286.28,1182
1286.55,1180
1286.83,1190
1287.1,1190
1287.37,1168
1287.64,1176
1287.92,1178
1288.19,1185
1288.46,1189
1288.73,1187
1289.01,1179
1289.28,1187
1289.55,1182
1289.82,1171
1290.1,1197
1290.37,1186
1290.64,1190
1290.91,1166
1291.19,1188
1291.46,1182
1291.73,1176
1292,1184
1292.27,1174
1292.55,1158
1292.82,1190
1293.09,1196
1293.36,1176
1293.64,1198
1293.91,1178
1294.18,1185
1294.45,1197
1294.72,1186
1295,1176
1295.27,1187
1295.54,1170
1295.81,1188
1296.08,1166
1296.36,1174
1296.63,1183
1296.9,1172
1297.17,1174
1297.44,1183
1297.72,1179
1297.99,1190
1298.26,1200
1298.53,1175
1298.8,1186
1299.07,1183
1299.35,1181
1299.62,1189
1299.89,1189
1300.16,1172
1300.43,1187
1300.7,1184
1300.98,1175
1301.25,1172
1301.52,1163
1301.79,1183
1302.06,1182
1302.33,1173
1302.61,1190
1302.88,1174
1303.15,1178
1303.42,1166
1303.69,1186
1303.96,1164
1304.23,1191
1304.51,1163
1304.78,1176
1305.05,1184
1305.32,1184
1305.59,1168
1305.86,1177
1306.13,1166
1306.4,1186
1306.68,1170
1306.95,1172
1307.22,1177
1307.49,1180
1307.76,1200
1308.03,1182
1308.3,1183
1308.57,1165
1308.84,1188
1309.12,1181
1309.39,1190
1309.66,1173
1309.93,1190
1310.2,1172
1310.47,1178
1310.74,1190
1311.01,1176
1311.28,1184
1311.55,1181
1311.82,1162
1312.1,1177
1312.37,1169
1312.64,1181
1312.91,1189
1313.18,1184
1313.45,1180
1313.72,1174
1313.99,1168
1314.26,1169
1314.53,1174
1314.8,1166
1315.07,1168
1315.34,1176
1315.62,1184
1315.89,1178
1316.16,1178
1316.43,1200
1316.7,1179
1316.97,1173
1317.24,1178
1317.51,1170
1317.78,1167
1318.05,1180
1318.32,1176
1318.59,1178
1318.86,1157
1319.13,1172
1319.4,1184
1319.67,1167
1319.94,1165
1320.21,1177
1320.48,1178
1320.75,1179
1321.02,1178
1321.29,1170
1321.56,1184
1321.83,1171
1322.11,1178
1322.38,1188
1322.65,1184
1322.92,1203
1323.19,1194
1323.46,1184
1323.73,1191
1324,1175
1324.27,1180
1324.54,1182
1324.81,1184
1325.08,1166
1325.34,1182
1325.61,1187
1325.88,1186
1326.15,1160
1326.42,1178
1326.69,1169
1326.96,1162
1327.23,1196
1327.5,1163
1327.77,1161
1328.04,1164
1328.31,1174
1328.58,1176
1328.85,1171
1329.12,1180
1329.39,1172
1329.66,1194
1329.93,1189
1330.2,1182
1330.47,1167
1330.74,1179
1331.01,1179
1331.28,1178
1331.55,1168
1331.82,1164
1332.09,1174
1332.36,1178
1332.63,1172
1332.89,1176
1333.16,1188
1333.43,1179
1333.7,1170
1333.97,1162
1334.24,1154
1334.51,1174
1334.78,1158
1335.05,1172
1335.32,1169
1335.59,1156
1335.86,1178
1336.13,1176
1336.4,1180
1336.66,1172
1336.93,1166
1337.2,1175
1337.47,1172
1337.74,1181
1338.01,1183
1338.28,1178
1338.55,1174
1338.82,1178
1339.09,1163
1339.36,1160
1339.62,1167
1339.89,1165
1340.16,1180
1340.43,1168
1340.7,1178
1340.97,1171
1341.24,1186
1341.51,1173
1341.77,1179
1342.04,1174
1342.31,1187
1342.58,1183
1342.85,1168
1343.12,1168
1343.39,1172
1343.66,1176
1343.92,1165
1344.19,1177
1344.46,1176
1344.73,1170
1345,1175
1345.27,1182
1345.54,1167
1345.8,1168
1346.07,1174
1346.34,1177
1346.61,1175
1346.88,1168
1347.15,1173
1347.42,1176
1347.68,1178
1347.95,1179
1348.22,1168
1348.49,1160
1348.76,1169
1349.02,1176
1349.29,1164
1349.56,1171
1349.83,1162
1350.1,1167
1350.37,1170
1350.63,1174
1350.9,1168
1351.17,1182
1351.44,1171
1351.71,1170
1351.97,1163
1352.24,1166
1352.51,1185
1352.78,1171
1353.05,1185
1353.31,1172
1353.58,1178
1353.85,1182
1354.12,1188
1354.39,1181
1354.65,1168
1354.92,1176
1355.19,1172
1355.46,1173
1355.73,1168
1355.99,1182
1356.26,1163
1356.53,1177
1356.8,1176
1357.06,1184
1357.33,1170
1357.6,1177
1357.87,1175
1358.14,1167
1358.4,1178
1358.67,1189
1358.94,1204
1359.2,1172
1359.47,1201
1359.74,1190
1360.01,1190
1360.28,1196
1360.54,1191
1360.81,1188
1361.08,1180
1361.34,1186
1361.61,1166
1361.88,1202
1362.15,1171
1362.41,1160
1362.68,1188
1362.95,1183
1363.22,1172
1363.48,1184
1363.75,1170
1364.02,1180
1364.29,1176
1364.55,1180
1364.82,1168
1365.09,1169
1365.35,1160
1365.62,1178
1365.89,1171
1366.15,1168
1366.42,1168
1366.69,1166
1366.96,1158
1367.22,1172
1367.49,1181
1367.76,1180
1368.02,1164
1368.29,1172
1368.56,1166
1368.83,1174
1369.09,1169
1369.36,1174
1369.63,1164
1369.89,1182
1370.16,1181
1370.43,1158
1370.69,1163
1370.96,1158
1371.23,1170
1371.49,1182
1371.76,1175
1372.03,1156
1372.29,1169
1372.56,1174
1372.83,1179
1373.09,1167
1373.36,1152
1373.63,1170
1373.89,1152
1374.16,1178
1374.43,1169
1374.69,1158
1374.96,1178
1375.22,1163
1375.49,1168
1375.76,1166
1376.02,1171
1376.29,1159
1376.56,1173
1376.82,1171
1377.09,1179
1377.36,1163
1377.62,1168
1377.89,1181
1378.15,1165
1378.42,1168
1378.69,1160
1378.95,1180
1379.22,1167
1379.48,1161
1379.75,1156
1380.02,1150
1380.28,1164
1380.55,1172
1380.82,1166
1381.08,1148
1381.35,1173
1381.61,1175
1381.88,1178
1382.15,1175
1382.41,1159
1382.68,1174
1382.94,1168
1383.21,1149
1383.48,1166
1383.74,1162
1384.01,1165
1384.27,1158
1384.54,1171
1384.8,1168
1385.07,1160
1385.34,1165
1385.6,1173
1385.87,1158
1386.13,1172
1386.4,1160
1386.66,1152
1386.93,1157
1387.2,1177
1387.46,1167
1387.73,1169
1387.99,1168
1388.26,1168
1388.52,1146
1388.79,1165
1389.05,1156
1389.32,1172.9
1389.58,1161.77
1389.85,1173.86
1390.12,1160.02
1390.38,1171.27
1390.65,1159
1390.91,1165.51
1391.18,1161.04
1391.44,1170.52
1391.71,1154.42
1391.97,1158.08
1392.24,1166.35
1392.5,1174.63
1392.77,1180.5
1393.03,1156.58
1393.3,1168.6
1393.56,1155.64
1393.83,1152.55
1394.09,1163.52
1394.36,1166.53
1394.62,1161.83
1394.89,1168.17
1395.15,1165.88
1395.42,1158.44
1395.68,1169.51
1395.95,1155.93
1396.21,1169.72
1396.48,1167.26
1396.74,1151.5
1397.01,1161.55
1397.27,1168.11
1397.54,1175.99
1397.8,1162.12
1398.07,1171.09
1398.33,1164.39
1398.6,1161.08
1398.86,1157.74
1399.13,1148.36
1399.39,1169.98
1399.66,1154.97
1399.92,1149.32
1400.19,1161.12
1400.45,1155.93
1400.72,1168.91
1400.98,1164.37
1401.24,1156.91
1401.51,1163.48
1401.77,1158.06
1402.04,1160.67
1402.3,1168.82
1402.57,1156.58
1402.83,1171.2
1403.1,1161.38
1403.36,1163.46
1403.63,1160.75
1403.89,1160.57
1404.15,1157.51
1404.42,1155.2
1404.68,1158.97
1404.95,1149.95
1405.21,1162.71
1405.48,1156.34
1405.74,1152.93
1406,1163.28
1406.27,1153.56
1406.53,1163.89
1406.8,1157.75
1407.06,1156.66
1407.33,1156.93
1407.59,1158.54
1407.85,1156.01
1408.12,1159.66
1408.38,1151.68
1408.65,1152.09
1408.91,1150.24
1409.17,1149.24
1409.44,1151.21
1409.7,1153.57
1409.97,1151.97
1410.23,1158.55
1410.49,1151.51
1410.76,1142.69
1411.02,1153.21
1411.29,1159.67
1411.55,1157.61
1411.81,1159.94
1412.08,1149.57
1412.34,1151.26
1412.61,1160
1412.87,1167.26
1413.13,1168.93
1413.4,1161.9
1413.66,1163.17
1413.92,1156.26
1414.19,1162.83
1414.45,1155.09
1414.71,1162.36
1414.98,1151.8
1415.24,1157.41
1415.44,1162
1415.71,1162
1415.98,1166
1416.25,1158
1416.52,1158
1416.78,1156
1417.05,1157
1417.32,1162
1417.59,1162
1417.85,1157
1418.12,1150
1418.39,1158
1418.66,1144
1418.93,1164
1419.19,1154
1419.46,1153
1419.73,1159
1420,1144
1420.26,1161
1420.53,1151
1420.8,1153
1421.07,1138
1421.33,1160
1421.6,1160
1421.87,1148
1422.14,1165
1422.4,1152
1422.67,1156
1422.94,1146
1423.21,1164
1423.47,1164
1423.74,1147
1424.01,1157
1424.28,1163
1424.54,1142
1424.81,1140
1425.08,1153
1425.35,1156
1425.61,1145
1425.88,1152
1426.15,1159
1426.41,1140
1426.68,1128
1426.95,1173
1427.21,1158
1427.48,1146
1427.75,1158
1428.02,1148
1428.28,1160
1428.55,1157
1428.82,1147
1429.08,1148
1429.35,1140
1429.62,1146
1429.89,1164
1430.15,1152
1430.42,1155
1430.69,1174
1430.95,1154
1431.22,1154
1431.49,1144
1431.75,1150
1432.02,1146
1432.29,1147
1432.55,1150
1432.82,1152
1433.09,1155
1433.35,1144
1433.62,1168
1433.89,1160
1434.15,1162
1434.42,1142
1434.69,1144
1434.95,1171
1435.22,1153
1435.49,1150
1435.75,1140
1436.02,1153
1436.29,1152
1436.55,1169
1436.82,1154
1437.09,1155
1437.35,1143
1437.62,1147
1437.88,1167
1438.15,1146
1438.42,1156
1438.68,1155
1438.95,1148
1439.22,1159
1439.48,1164
1439.75,1144
1440.02,1130
1440.28,1158
1440.55,1168
1440.81,1146
1441.08,1170
1441.35,1134
1441.61,1152
1441.88,1145
1442.15,1154
1442.41,1152
1442.68,1163
1442.94,1162
1443.21,1181
1443.48,1168.67
1443.74,1170.56
1444.01,1173.41
1444.27,1170.88
1444.54,1171.61
1444.81,1163.97
1445.07,1160.09
1445.34,1140
1445.6,1154
1445.87,1163
1446.13,1142
1446.4,1154
1446.67,1142
1446.93,1150
1447.2,1156
1447.46,1152
1447.73,1145
1447.99,1167
1448.26,1162
1448.53,1162
1448.79,1162
1449.06,1168
1449.32,1156
1449.59,1146
1449.85,1161
1450.12,1171
1450.39,1155
1450.65,1157
1450.92,1154
1451.18,1154
1451.45,1151
1451.71,1164
1451.98,1158
1452.24,1151
1452.51,1164
1452.77,1152
1453.04,1146
1453.3,1160
1453.57,1159
1453.84,1176
1454.1,1160
1454.37,1156
1454.63,1167
1454.9,1165
1455.16,1145
1455.43,1162
1455.69,1148
1455.96,1172
1456.22,1154
1456.49,1163
1456.75,1154
1457.02,1159
1457.28,1157
1457.55,1162
1457.81,1162
1458.08,1154
1458.34,1162
1458.61,1166
1458.87,1142
1459.14,1152
1459.4,1163
1459.67,1158
1459.93,1173
1460.2,1156
1460.46,1162
1460.73,1147
1460.99,1156
1461.26,1153
1461.52,1169
1461.79,1160
1462.05,1160
1462.32,1156
1462.58,1144
1462.85,1154
1463.11,1146
1463.38,1146
1463.64,1162
1463.91,1154
1464.17,1161
1464.43,1159
1464.7,1142
1464.96,1165
1465.23,1152
1465.49,1166
1465.76,1140
1466.02,1163
1466.29,1149
1466.55,1144
1466.81,1151
1467.08,1165
1467.34,1152
1467.61,1148
1467.87,1159
1468.14,1139
1468.4,1151
1468.66,1164
1468.93,1161
1469.19,1158
1469.46,1153
1469.72,1139
1469.99,1145
1470.25,1149
1470.51,1136
1470.78,1148
1471.04,1159
1471.31,1158
1471.57,1158
1471.84,1155
1472.1,1163
1472.36,1155
1472.63,1148
1472.89,1160
1473.15,1145
1473.42,1158
1473.68,1156
1473.95,1142
1474.21,1144
1474.47,1146
1474.74,1164
1475,1149
1475.27,1175
1475.53,1165
1475.79,1146
1476.06,1146
1476.32,1158
1476.59,1159
1476.85,1146
1477.11,1154
1477.38,1150
1477.64,1162
1477.9,1149
1478.17,1149
1478.43,1154
1478.69,1145
1478.96,1161
1479.22,1150
1479.48,1152
1479.75,1149
1480.01,1162
1480.28,1148
1480.54,1164
1480.8,1144
1481.07,1144
1481.33,1140
1481.59,1144
1481.86,1138
1482.12,1159
1482.38,1151
1482.65,1155
1482.91,1149
1483.17,1154
1483.44,1166
1483.7,1158
1483.96,1154
1484.23,1160
1484.49,1148
1484.75,1163
1485.02,1156
1485.28,1167
1485.54,1154
1485.81,1159
1486.07,1142
1486.33,1147
1486.59,1148
1486.86,1154
1487.12,1150
1487.38,1146
1487.65,1156
1487.91,1143
1488.17,1142
1488.44,1151
1488.7,1157
1488.96,1156
1489.22,1134
1489.49,1148
1489.75,1177
1490.01,1158
1490.28,1140
1490.54,1152
1490.8,1148
1491.06,1161
1491.33,1146
1491.59,1153
1491.85,1148
1492.11,1163
1492.38,1154
1492.64,1156
1492.9,1154
1493.17,1170
1493.43,1156
1493.69,1160
1493.95,1150
1494.21,1146
1494.48,1148
1494.74,1152
1495,1148
1495.27,1152
1495.53,1158
1495.79,1149
1496.05,1162
1496.31,1150
1496.58,1163
1496.84,1142
1497.1,1138
1497.36,1162
1497.63,1162
1497.89,1161
1498.15,1148
1498.41,1160
1498.68,1149
1498.94,1166
1499.2,1162
1499.46,1147
1499.72,1149
1499.99,1140
